lead1,lead2,time
-0.025057288207682618,0.013420140059176478,0.0
-0.021901189292847012,0.032226441725879976,0.005
-0.02604870299081801,0.039706119123258284,0.01
-0.035923174627868114,0.03671011779888947,0.015
-0.027111558813346467,0.033102284246842736,0.02
-0.014820010966808185,0.03952002924482167,0.025
-0.014089399302612911,0.05494878147428046,0.03
-0.002449717494124065,0.05808636458111011,0.035
0.017845660112756043,0.0497353576203833,0.04
0.028624256288212174,0.055808227629682,0.045
0.03745342629234473,0.06574817187853986,0.05
0.040681676346924815,0.06048119245845519,0.055
0.03653581467836674,0.0630144223752471,0.06
0.047816121353100344,0.07579251369597632,0.065
0.05817704681628915,0.07481790110137414,0.07
0.04184725698614264,0.0799284339893671,0.075
0.03510712805076496,0.09967287671728303,0.08
0.049030574007624554,0.09493903558183067,0.085
0.04266421189552795,0.0758107030879088,0.09
0.029730553140853735,0.07419836859808997,0.095
0.03387928409542086,0.05787010379063235,0.1
0.02173807833899225,0.022476421208882755,0.105
0.0008960110077788597,0.01401851435245275,0.11
0.006882371047917267,0.01042340709232534,0.115
0.006981465445670117,-0.01675792232074988,0.12
-0.012558647243979412,-0.020908101954896813,0.125
-0.006651283779157943,-0.0019422137799270972,0.13
0.017272055699699435,-2.4215808998622766e-05,0.135
0.029192951931690716,0.0180943365379537,0.14
0.04452735848898167,0.04785772632218964,0.145
0.059280043867232415,0.01482001096680808,0.15
0.0660861189563977,-0.03845134873538813,0.155
0.09571637120635242,-0.045119674676109806,0.16
0.13135809165096607,-0.1106132318579599,0.165
0.1288514405304865,-0.2855392189209516,0.17
0.10594419582227496,-0.39755956172088225,0.175
0.06619333402013888,-0.3506618622856711,0.18
-0.015013522735768624,-0.254967906730838,0.185
-0.08888153426424605,-0.17858630628978098,0.19
-0.1087218806495499,-0.09749709741927798,0.195
-0.10824342865426159,-0.035048156022822345,0.2
-0.10300463250598124,-0.014035346619368816,0.205
-0.08971917659167422,0.007106940899144164,0.21
-0.09299699925762175,0.04105836419065295,0.215
-0.09037006928728734,0.05001667243425127,0.22
-0.055258297409588826,0.034367015479794025,0.225
-0.03828735807242427,0.031292943447958466,0.23
-0.04551713332899264,0.04294513667642186,0.235
-0.026235025240831777,0.04430322677309363,0.24
-0.008766855923105405,0.03884670980066157,0.245
-0.016031708142125775,0.04544007660378063,0.25
0.0003768258828990359,0.057126075360193235,0.255
0.02015424888685796,0.06543950877292153,0.26
0.006822529282419022,0.08088935536299477,0.265
0.016147122535120396,0.09577092929142061,0.27
0.04446003290042434,0.09386006945645138,0.275
0.026616228380375074,0.09092171468591159,0.28
0.005792647313150401,0.09555814462415205,0.285
0.01887514934371148,0.0863474666067041,0.29
0.006168063515913281,0.06828044102419893,0.295
-0.019967305802690957,0.06472301999543274,0.3
-0.015581026308138379,0.06560025017190772,0.305
-0.026203189447346495,0.05640246381201703,0.31
-0.0451390232659417,0.041220585507708116,0.315
-0.022829710456932953,0.021237061451498295,0.32
-0.020578995513837302,0.010749773930934648,0.325
-0.06132861539212524,0.020422333600017033,0.33
-0.05962876752310519,0.015130399941294911,0.335
-0.037405780317434134,-0.01612607847411229,0.34
-0.06213825335223964,-0.020980693342994898,0.345
-0.07417268917824794,0.004605037859017124,0.35
-0.05109125871886158,0.00574706491774178,0.355
-0.056015091646527404,-0.013011096686209547,0.36
-0.06062353879006783,-0.012523735696569373,0.365
-0.03243328047898847,-0.0032678813571519385,0.37
-0.03197152142846127,-0.0007015115797927139,0.375
-0.051435721636294084,0.0011538365987583611,0.38
-0.03641524025295517,-0.006743391928347064,0.385
-0.0248246691336553,-0.022024802867868606,0.39
-0.036003889856446175,-0.022891885796056572,0.395
-0.024700018278013536,-0.014820010966808171,0.4
-0.006112542424624091,-0.007922020046327288,0.405
-0.0050497432773671524,0.008570111767366892,0.41
0.00740645919830365,0.02408452367798035,0.415
0.020032092464376004,0.020855390533695048,0.42
0.011737441897198338,0.012901370697206227,0.425
0.01888846644225481,0.007176525320967987,0.43
0.03988116438612067,-0.0012185874107458602,0.435
0.03774390909019775,0.009293696346941023,0.44
0.03763904920154465,0.04075714956801185,0.445
0.058218096840156344,0.05366721353621615,0.45
0.06381976698091867,0.049539383017828134,0.455
0.055091414296284544,0.0697856013623334,0.46
0.05534551887766369,0.10670535310000652,0.465
0.050178236591023176,0.12330308248620003,0.47
0.03761563449873204,0.12131089640163295,0.475
0.03414816846699175,0.11671978132015448,0.48
0.02745512079504021,0.10997671460391661,0.485
0.011414651101235044,0.10509008988264203,0.49
0.004581201595945454,0.10270113802917473,0.495
0.005673218762681534,0.09032540326043605,0.5
7.659880396679254e-05,0.06930976351497584,0.505
-0.011362670123701697,0.052521973274195756,0.51
-0.02160640432531996,0.03710358002125438,0.515
-0.027703505251479604,0.021733686477537588,0.52
-0.034580025589219,0.019760014622410803,0.525
-0.045637108169307175,0.02576731858278262,0.53
-0.04943757983926815,0.021293195336352846,0.535
-0.04478851481966022,0.014914339445608504,0.54
-0.046334346224289585,0.015524273470007184,0.545
-0.04986336641644337,0.0043770314182721825,0.55
-0.04900306933945269,-0.013550257005350537,0.555
-0.05296433696811755,-0.006903354501754035,0.56
-0.053518970187111055,0.012587789647257618,0.565
-0.047992151732779785,0.013086546123017252,0.57
-0.05742698776541732,0.006655544173542617,0.575
-0.06371601292872853,0.010237339118396612,0.58
-0.04112996376382275,0.015315597995879823,0.585
-0.024865021599173226,0.0285139554711921,0.59
-0.02082743587785866,0.057382056690515805,0.595
0.015216401419872983,0.08042124317125438,0.6
0.05585901722516106,0.08214769739724888,0.605
0.06292014582010003,0.06441179589587753,0.61
0.08735088091730939,0.0339981761830124,0.615
0.14130514925831344,0.000549426717655487,0.62
0.16959024371185766,-0.06734068985584427,0.625
0.18091792079091,-0.20217599496273655,0.63
0.186291624894388,-0.30748676092733007,0.635
0.13653633039557223,-0.2693311962993046,0.64
0.05127373171182502,-0.16530578446105748,0.645
-0.004940003655602719,-0.10374007676765677,0.65
-0.04183147867947528,-0.029577314529778697,0.655
-0.0664688538621112,0.08323646850448506,0.66
-0.05678000224468629,0.1417549131036029,0.665
-0.04418027260956393,0.13895927982032352,0.67
-0.04317131075802955,0.13987266762005932,0.675
-0.024745639706941307,0.1367469849956798,0.68
-0.017745183999410802,0.1255667023883226,0.685
-0.0378913141360304,0.1292586133099855,0.69
-0.03252619705763308,0.11377585756478627,0.695
-0.02104530806010415,0.07425640301342758,0.7
-0.05184421374402696,0.06468730328382884,0.705
-0.07095494076345912,0.07196402088900956,0.71
-0.05641926582711378,0.06506035073373624,0.715
-0.06314553779525894,0.06863782524557063,0.72
-0.06819253450898063,0.06437820111314564,0.725
-0.04653453610846084,0.032413031929276796,0.73
-0.057723448687282304,0.0337373144903049,0.735
-0.08449558872413693,0.06114221108737307,0.74
-0.06723917218950795,0.039375362887272586,0.745
-0.06365193907489952,0.011656439261231557,0.75
-0.10121150897941317,0.03534979247046306,0.755
-0.100337277428652,0.04860057591708521,0.76
-0.06824037695313491,0.03453544198367091,0.765
-0.06961298909972205,0.041472907074177404,0.77
-0.07904005848964328,0.04446003290042434,0.775
-0.07601320412419073,0.03153676762222749,0.78
-0.08280863823596266,0.04212126188968337,0.785
-0.07671361142350011,0.04650923134404989,0.79
-0.05709632315014099,0.02652113859092573,0.795
-0.06449153626539296,0.03772362035200282,0.8
-0.07258886684909359,0.05993591221413022,0.805
-0.05034314960970976,0.04655184190670587,0.81
-0.03273552829901344,0.047869884290831506,0.815
-0.02233616812953268,0.06706346267659975,0.82
-0.0012495055679276688,0.0463485722649432,0.825
0.0047176093702670134,0.030116933068336314,0.83
0.00733985540430379,0.05168451360915651,0.835
0.03614134678494301,0.044947685917584426,0.84
0.049832607681904485,0.02892365981647798,0.845
0.04038963561152141,0.06378862004460416,0.85
0.0621606315147169,0.08442014586986175,0.855
0.09237603424674991,0.05796625633345987,0.86
0.08734801968849361,0.06068170652536064,0.865
0.08632149713697622,0.0895723901930481,0.87
0.09907324603874215,0.08864792821253559,0.875
0.09002431512516319,0.07488169377333112,0.88
0.08486961397395287,0.06225065329582446,0.885
0.09626621882871059,0.04849261569991379,0.89
0.08014880912610307,0.057401254912501073,0.895
0.05434004021162974,0.05928004386723247,0.9
0.059840734876982,0.021149674505737168,0.905
0.06091220625811802,0.004841868786268845,0.91
0.037446715118786826,0.027683471393668783,0.915
0.02192813114276004,0.0253256017566908,0.92
0.009763444526367631,0.014629233882656767,0.925
-0.01094110724870439,0.03155984871645793,0.93
-0.020133271007788302,0.028245697288080275,0.935
-0.027119481144495396,0.007880301406550399,0.94
-0.04525853813444139,0.018813123713451962,0.945
-0.04820623000372451,0.02350021398327722,0.95
-0.03936816970284568,0.004179787061186683,0.955
-0.04984905773897461,0.015463518335836793,0.96
-0.06592883346499653,0.036966033587824305,0.965
-0.0690956925200926,0.021287289863532656,0.97
-0.0723396175980413,0.008640794596901213,0.975
-0.07334699773813479,0.0191629888615092,0.98
-0.0689616739922506,0.020330488948242628,0.985
-0.07648196704016545,0.023306146312050267,0.99
-0.08403913246305043,0.03777819652642942,0.995
-0.0700194223812363,0.04020287503429394,1.0
-0.05772204679715655,0.042010338364551474,1.005
-0.06575363174454307,0.049676407207518425,1.01
-0.07380135679961981,0.03997854371384178,1.015
-0.07319673309910793,0.03507262789194768,1.02
-0.0691600511784379,0.05434004021162972,1.025
-0.05520380339156734,0.06173067427291246,1.03
-0.03753101454946318,0.06046390061334188,1.035
-0.03012422838118948,0.07709564577385493,1.04
-0.023736671245179954,0.0782376390830495,1.045
-0.01052542742582583,0.059531618312131634,1.05
-0.0012493535399528723,0.06828224673178367,1.055
0.0037366264188356136,0.08514793168584138,1.06
0.011342929465114265,0.07688762396592926,1.065
0.01534514088239473,0.08084307860637552,1.07
0.01276719539418356,0.10002419592482724,1.075
0.009683537227799298,0.09272873105752562,1.08
0.004314657095270383,0.08264493344066035,1.085
-0.003972767724980484,0.09894273720676017,1.09
-0.0052074588662262365,0.10443424536000424,1.095
0.0001853483863787999,0.08697064890103513,1.1
-0.0028350435262554344,0.0769841779148185,1.105
-0.017023105443192427,0.0713441066447163,1.11
-0.027812829229954556,0.05704814780435168,1.115
-0.029897289315794908,0.04867170819561775,1.12
-0.03556956315493618,0.05246141489906889,1.125
-0.05000417832922327,0.05687597607488735,1.13
-0.05975250258489799,0.05339341877706158,1.135
-0.05681321614475937,0.04322130154147144,1.14
-0.053258799252788,0.03714358495080519,1.145
-0.05928004386723248,0.03458002558921895,1.15
-0.06738175642601352,0.02255708947020019,1.155
-0.0692260234535442,0.012084221668967155,1.16
-0.06895343128344457,0.018496919922849277,1.165
-0.07310430904763576,0.023528434955082906,1.17
-0.08229623674805646,0.01805837021171521,1.175
-0.09228312584422654,0.02171353588754907,1.18
-0.0936535391859007,0.033965476631254155,1.185
-0.08080676530363466,0.040200891714210166,1.19
-0.06610509158777171,0.043365319081639105,1.195
-0.06702257724231532,0.045181050873137875,1.2
-0.07982471978627802,0.04447397558684773,1.205
-0.08611515178430537,0.04733369343207625,1.21
-0.07933416823516407,0.05070460840732894,1.215
-0.06956070619784538,0.05392529665210456,1.22
-0.06769819612260589,0.06255903641097853,1.225
-0.06892479483904919,0.06163223639949613,1.23
-0.05796775495240748,0.0500881861993049,1.235
-0.03813763947587103,0.0569972941722765,1.24
-0.028630116417079975,0.07101719094605302,1.245
-0.02663628344977365,0.06564968253822465,1.25
-0.0177366059969324,0.07083195091020476,1.255
-0.009214077468641925,0.09023396670411428,1.26
-0.004380010581248134,0.07661039894277988,1.265
0.007620968121658571,0.057542868142606673,1.27
0.014820010966808125,0.08398006214524593,1.275
0.010668936915866152,0.1060344721361374,1.28
0.02448645055706913,0.08960979456364636,1.285
0.052219077570334865,0.08694160896857757,1.29
0.05490415766581033,0.10672743224068779,1.295
0.050352134648771,0.1244146228488304,1.3
0.07217575831209416,0.149033478339569,1.305
0.09256727258563531,0.14241201407971918,1.31
0.10131016834388042,0.07456606573575775,1.315
0.13213553512990495,0.025926153891974058,1.32
0.17079522770350372,-0.001783208628597445,1.325
0.18842870373299592,-0.13553537245208128,1.33
0.19715317177954275,-0.32813239972977243,1.335
0.17247903890420774,-0.3856370563541677,1.34
0.08104049145087515,-0.30746551838244596,1.345
-0.01771684096238193,-0.21564164695500082,1.35
-0.0688680869181242,-0.12004195191780016,1.355
-0.09925971773603809,-0.029922265537008722,1.36
-0.10951060097440315,-0.006517667549217895,1.365
-0.08781090391705904,-0.006527666605376141,1.37
-0.0864436609565124,0.03531629778808677,1.375
-0.10780365230727389,0.06159503221325773,1.38
-0.08923623427907375,0.03524623818919937,1.385
-0.06110838940822402,0.017227866717523906,1.39
-0.0785522421291799,0.02565756089754901,1.395
-0.0889200658008487,0.029640021933616274,1.4
-0.06738743709717711,0.03462680020658199,1.405
-0.0701722763243295,0.0408774413788794,1.41
-0.0842790232016638,0.031336409345221805,1.415
-0.07189573917531797,0.024075058628163847,1.42
-0.07350315361199905,0.03341637241082647,1.425
-0.09009070141551839,0.04265815121573142,1.43
-0.06766192115748534,0.05158554091580285,1.435
-0.036306174075426766,0.05974441540076528,1.44
-0.04115390247111125,0.04988029160828139,1.445
-0.040440591959551006,0.0424946040716245,1.45
-0.018611688777315782,0.060591594228193886,1.455
-0.013362809376565218,0.06516120802696287,1.46
-0.012717804120219962,0.04266049421088301,1.465
-0.000502778974105185,0.04759324804295231,1.47
-0.002078992653816966,0.08067867754917468,1.475
-0.0016054638855478422,0.08680093217793959,1.48
0.02489580571127033,0.07814013993630395,1.485
0.03443033341163074,0.09275244000729206,1.49
0.015175234345658758,0.1041431693506594,1.495
0.018270451645370396,0.09544533169221849,1.5
0.03453370967951775,0.09740155915735083,1.505
0.02201643483674258,0.1033381020591952,1.51
0.010549777867674968,0.08501249351027734,1.515
0.022942420200331527,0.06514215638942497,1.52
0.01976001462241084,0.0642200475228351,1.525
0.003160961192910445,0.05817127361033754,1.53
0.012401736368541342,0.04379394005064845,1.535
0.025145436490998735,0.04360961137049646,1.54
0.010615004202826723,0.04706841918222044,1.545
-0.0012258138471763923,0.03380845066041538,1.55
0.00422679113562221,0.017055105616052415,1.555
0.0011278804024247387,0.013197967455881473,1.56
-0.005062600662408703,0.014929462802715386,1.565
0.0023902774853618376,0.011925689780019209,1.57
0.0037361686980681196,0.007468085188823103,1.575
-0.005258660247333464,0.010284914784359877,1.58
0.0013137610358427718,0.015887627496309863,1.585
0.016504274025091317,0.010362890519836122,1.59
0.01537511128901453,0.0002890569474252809,1.595
0.006952245526386659,0.002087284690757456,1.6
0.0043358715389350535,0.004424914880803513,1.605
0.0008316572287005358,-0.0038285396206301264,1.61
-0.0015994279400523266,-0.0007534087702910518,1.615
0.0004031765191837753,0.02044575401018719,1.62
-0.002815482586511846,0.033706953558818364,1.625
-0.007961218107976946,0.03524428281356948,1.63
-0.004089532496641832,0.040344476960494646,1.635
0.0005308626045492059,0.04424323846514551,1.64
-0.002191009047259945,0.04582867733394085,1.645
-0.004940003655602672,0.05434004021162975,1.65
-0.003041703757267441,0.05776820432731043,1.655
0.003200237912677366,0.05227283941731518,1.66
0.009590487119805237,0.06169398390022769,1.665
0.007644606948187508,0.08090775911665411,1.67
0.005429476791429761,0.08237415170482705,1.675
0.016251575315711517,0.07808709485811133,1.68
0.026181084633023818,0.08444296607183435,1.685
0.02393122615898541,0.08233007029894394,1.69
0.023598266988243546,0.07348650752281681,1.695
0.024827656604101214,0.08011363888281985,1.7
0.019434196551618838,0.08348232312068936,1.705
0.018987957186341633,0.06624315625240113,1.71
0.016994147051274326,0.058780154395059084,1.715
0.0008920837041089018,0.0687498691075617,1.72
0.0009858344804709418,0.06451085120956562,1.725
0.022056337706238428,0.049292845736818046,1.73
0.01501576169180217,0.044743041826392764,1.735
-0.008962247218397652,0.04031531799338765,1.74
5.125743999725627e-05,0.0338131329563849,1.745
0.00963515452057838,0.03825330577975148,1.75
-0.011263531004578744,0.03540365221312516,1.755
-0.012828517666365627,0.017924717971272562,1.76
0.005730561120769135,0.020285515607157502,1.765
-0.004590605619370302,0.041611994773503594,1.77
-0.004940003655602686,0.04940003655602701,1.775
0.04581328926614493,0.05986413108622883,1.78
0.08556759378966404,0.08358471236412347,1.785
0.08825699591280983,0.0738164453480486,1.79
0.10958832266284237,0.02995874273978857,1.795
0.14998487685833128,-0.006250431065360592,1.8
0.17074168316002805,-0.08057459578871566,1.805
0.174631648932421,-0.23622441052100285,1.81
0.14944100597778642,-0.3587051535156456,1.815
0.0736034305556916,-0.3339439961737098,1.82
-0.010344153957932811,-0.2281691697652758,1.825
-0.06175330349029249,-0.14387963953129454,1.83
-0.09646757551515027,-0.07804643080740664,1.835
-0.11291845657398315,-0.013381058749882985,1.84
-0.09556325222313183,0.02806264516065364,1.845
-0.07341657407687081,0.0443837168991611,1.85
-0.06841968291490763,0.05138662518143713,1.855
-0.06167190659538804,0.05389268822563761,1.86
-0.04812380211219247,0.05842400469208938,1.865
-0.036734728971275464,0.0657778516466567,1.87
-0.023694625908011312,0.06841670766092023,1.875
-0.014561883172141053,0.07385512718107554,1.88
-0.014935513672502697,0.08505548557351272,1.885
-0.010059895489384492,0.08197482448134566,1.89
0.0012015053108953883,0.0621469973492699,1.895
0.004940003655602739,0.04940003655602698,1.9
0.005048168987744277,0.051478065687997156,1.905
0.003110957920186416,0.055371475170688335,1.91
-0.00831630126118466,0.05067173193011073,1.915
-0.014670891873351338,0.03916938706647054,1.92
-0.00713277942010005,0.03461028420320992,1.925
-0.007316931209838039,0.039191732037978835,1.93
-0.0189859291725261,0.034689186461969404,1.935
-0.02544350701542971,0.023183911056774077,1.94
-0.031310391266236436,0.02584724539102899,1.945
-0.038205959731809847,0.03362383107142011,1.95
-0.03413909140054583,0.029177851481195886,1.955
-0.03350930477764282,0.026579502677913102,1.96
-0.04626445274961664,0.03338228840653426,1.965
-0.04530104542957261,0.03483026578990595,1.97
-0.030656602967583546,0.02754008503802453,1.975
-0.03288810051245367,0.01391331204466146,1.98
-0.040080447392932136,0.0006261713590679739,1.985
-0.03223543725272236,0.0075327710759914525,1.99
-0.03089014770315062,0.0215048199862995,1.995
-0.03618374406311303,0.01034891452458536,2.0
-0.025660352543202987,0.0033308837371546457,2.005
-0.020425875835509564,0.028036250259878052,2.01
-0.03078716439686038,0.029731662273977277,2.015
-0.017979693479493214,-0.006513364982210682,2.02
0.009880007311205393,-0.009880007311205329,2.025
0.007882468119709446,0.017813663589224368,2.03
-0.0015118752685944225,0.011786189888233788,2.035
0.01275276964791887,-0.009074535433547297,2.04
0.0195538974996395,-0.0046252865929700335,2.045
0.01414260941825108,-0.00028562987440724423,2.05
0.025780877226024505,-0.001734477785257182,2.055
0.032915220403966675,0.00843046987346169,2.06
0.023704766216773386,0.008381337483380139,2.065
0.04080295099987341,0.004122550838395732,2.07
0.07162494218083353,0.026993747972003164,2.075
0.06255943945981239,0.03894540288098372,2.08
0.03978954174350572,0.0173375216283619,2.085
0.044944924737382125,0.027359772398322244,2.09
0.04974139756399,0.07212201855045372,2.095
0.0428384651154182,0.07436194875313708,2.1
0.04719272841697672,0.044160192421710466,2.105
0.0432319147886994,0.04210176042486129,2.11
0.020308061669631103,0.051552859071050644,2.115
0.017051593137310844,0.048469613002330776,2.12
0.02983147177885508,0.05216973669438169,2.125
0.018823915801419518,0.05372619992682102,2.13
-0.0017197165456321582,0.03702313818644378,2.135
-0.00503326443365251,0.022772093362888348,2.14
-0.007914046678336695,0.015503357433192425,2.145
-0.019760014622410803,0.004940003655602739,2.15
-0.02975660135531184,0.005210112440038001,2.155
-0.038113834460618175,0.01108256158670984,2.16
-0.04017748088395166,-0.0023201187774366987,2.165
-0.03201079491098115,-0.017637490982649023,2.17
-0.031083042488783495,-0.010928273174977046,2.175
-0.041859052792373876,-0.000765777910016978,2.18
-0.04993174256383903,-0.00013137599765233301,2.185
-0.05532862815292388,6.753688032064952e-05,2.19
-0.05659177669167561,-0.0026852411128374127,2.195
-0.04984068338897256,-0.007599109961512642,2.2
-0.05532472223936203,-0.004557765263031722,2.205
-0.07270476841709092,-2.9780054935615553e-06,2.21
-0.06776500014817344,-0.000637306366900345,2.215
-0.04995402888519619,-0.00011586465938585053,2.22
-0.05153067551056588,0.002018384963846579,2.225
-0.05243825124048484,0.008228822304002422,2.23
-0.04050883946127923,0.018906054494164378,2.235
-0.04527210794870792,0.013652259648034825,2.24
-0.05484179088042669,-0.0028041073444206167,2.245
-0.04321194137743099,0.009610642848483812,2.25
-0.04007193392432757,0.039534354357312514,2.255
-0.04967991547039798,0.03720000098943801,2.26
-0.03239553952913828,0.017099774139545512,2.265
-0.010420931567000257,0.018369784697579217,2.27
-0.019760014622410775,0.024700018278013547,2.275
-0.021636588896944257,0.024215697301622627,2.28
-0.0005589652504036551,0.037332872011503995,2.285
0.0013945160745029977,0.04957793026469081,2.29
-0.00626049557679975,0.03961633311664533,2.295
0.0038368186934262067,0.036655887989252525,2.3
0.00031228790618214436,0.05816003175420172,2.305
-0.020447722276787372,0.07711752743809336,2.31
-0.016917393347112075,0.08549098599526185,2.315
-0.00382515867782717,0.0956174469453932,2.32
-0.012764921130254653,0.10081840307372357,2.325
-0.019639511735889504,0.09870632664342652,2.33
-0.014366573623379042,0.10099936216703255,2.335
-0.017983021561099,0.1060069113213009,2.34
-0.020081037319098133,0.1085564995924572,2.345
-0.013669123650744444,0.10880231544549486,2.35
-0.017633665729762465,0.0977828721612972,2.355
-0.017570014353974015,0.07731700342529982,2.36
0.0033792602622071226,0.06606306507872466,2.365
0.01555544395203679,0.0638258834852389,2.37
0.012982287560319954,0.06552708130783558,2.375
0.02732907090102419,0.08358975414829745,2.38
0.052058933991257966,0.09873060849571987,2.385
0.06932358289707052,0.06695991218952725,2.39
0.09688787147650782,0.001510979455643985,2.395
0.13338009870127304,-0.06422004752283514,2.4
0.1537253999164012,-0.15883327717638743,2.405
0.1591292406017067,-0.28990533325658874,2.41
0.14334683215535127,-0.37253444856413614,2.415
0.08088527658154057,-0.3533384335661551,2.42
-0.007114327107910819,-0.28292293972169913,2.425
-0.07278170929784467,-0.20760874804160598,2.43
-0.10794767700253766,-0.12450862926525567,2.435
-0.11846965327512075,-0.04640750851511925,2.44
-0.10527078677191606,0.0033872384608915583,2.445
-0.09266663501430622,0.02710003217554116,2.45
-0.09393465196707959,0.029132283673551276,2.455
-0.08517441363888031,0.01525821702452486,2.46
-0.06268440374612354,0.008896329214686074,2.465
-0.04976511922874329,0.01456334637341668,2.47
-0.044650571357731546,0.013072718427526398,2.475
-0.03617936571150107,0.010087454916720778,2.48
-0.030355450657632226,0.021596833593915208,2.485
-0.02522521379979106,0.036423805005151313,2.49
-0.01880337454834752,0.04745116144811275,2.495
-0.025175197732947158,0.0637409635703132,2.5
-0.03725978676242192,0.07807031252907314,2.505
-0.03331651292928977,0.08484435738078058,2.51
-0.026979651664191504,0.09499899286250839,2.515
-0.036538999408643226,0.098821942411634,2.52
-0.04446003290042432,0.08892006580084866,2.525
-0.04307508214631076,0.09941243739487013,2.53
-0.04713879756457366,0.13208703673492533,2.535
-0.04983369859875883,0.1279201368451799,2.54
-0.04560573012966583,0.0861178949262368,2.545
-0.05378271155811735,0.07782355047526596,2.55
-0.0651046835540551,0.1108274916023967,2.555
-0.051178759733127015,0.13032734775971802,2.56
-0.032755690217413515,0.12730324007192428,2.565
-0.03681827000982477,0.11933089098610232,2.57
-0.03799474076641064,0.09908595349439651,2.575
-0.02388173493648065,0.07271385214205768,2.58
-0.01928788321689449,0.056699495989908644,2.585
-0.016970029284079924,0.03995517585082499,2.59
-0.0009326638487636891,0.020600740132037575,2.595
0.0026122155866003605,0.013630951616592862,2.6
-0.007937566973298768,0.004880123654256834,2.605
0.00482653235371085,-0.012849515171270696,2.61
0.028319983527257783,-0.01286561073261853,2.615
0.027452341831875164,-0.004231103298248171,2.62
0.022650195602335717,-0.015300340382680364,2.625
0.031662618999463925,-0.022716207739733582,2.63
0.03437299958807641,-0.02052711434046444,2.635
0.03580903251333835,-0.047759065679759065,2.64
0.04271578648552555,-0.07435194707172173,2.645
0.02964002193361623,-0.04940003655602702,2.65
0.015043072154026563,-0.030767154204712408,2.655
0.03985478137340442,-0.05916919264985629,2.66
0.06435292450794412,-0.06261538657990887,2.665
0.0469445466786924,-0.03478303572076001,2.67
0.034694084051452724,-0.049244102201223564,2.675
0.05096740117742327,-0.06905997169308235,2.68
0.05496819359522077,-0.028967630489812525,2.685
0.04922601248428742,0.007572381141084305,2.69
0.054563278782694215,-0.0022528704620881123,2.695
0.0461565738342227,0.003428953413970332,2.7
0.02916298701626587,0.03089661299382505,2.705
0.03546879695251022,0.03551214692519775,2.71
0.03547993605294227,0.03879956986258833,2.715
0.006743781258112996,0.05824388531450659,2.72
-0.007742522836789008,0.0663485039634133,2.725
-0.004734532443519499,0.07397190963035277,2.73
-0.020598459445729012,0.09218313339747279,2.735
-0.03402457104833567,0.0876266133182456,2.74
-0.02845459606893678,0.0722352188729413,2.745
-0.04125510987834022,0.08618655723720536,2.75
-0.06106349523595538,0.10483188076098619,2.755
-0.04612068919668135,0.10315173606698308,2.76
-0.030151116161102123,0.10332986797820289,2.765
-0.046112870536758124,0.09865864058581286,2.77
-0.05434004021162976,0.0741000548340406,2.775
-0.04427399448722326,0.059099877516575694,2.78
-0.04867111235622182,0.05926540500842712,2.785
-0.054853066987587004,0.050676284365881515,2.79
-0.047504091813180944,0.04789305558745107,2.795
-0.05363782725686145,0.05603299957097805,2.8
-0.06521519075934189,0.04475405849681576,2.805
-0.0515763560405996,0.030506036379278557,2.81
-0.0393244410525189,0.04271727414874294,2.815
-0.05081868315463063,0.043688066641151324,2.82
-0.0521750147235434,0.01628686202879145,2.825
-0.03897581137108997,0.010674473818445959,2.83
-0.04116728829678688,0.026600619538216394,2.835
-0.042887791022684946,0.013300605156858599,2.84
-0.025785880086731876,-0.009621205984906005,2.845
-0.018063394080443985,0.009276164335045816,2.85
-0.01778213241512285,0.04728213800461659,2.855
0.011419659078251715,0.059675154769431867,2.86
0.05291985290684228,0.05586877814634897,2.865
0.07224464497768922,0.05349998126136016,2.87
0.08941092450459495,0.04162608923923991,2.875
0.12386519329644183,0.013753209225649623,2.88
0.1565611413509655,-0.0384671483695965,2.885
0.17778261044798038,-0.14049462709164998,2.89
0.18111086728310427,-0.26583950238901405,2.895
0.1432601060124785,-0.3161602339585731,2.9
0.07117080299960173,-0.25173332447271696,2.905
0.00020861661437191785,-0.14941506020695847,2.91
-0.057924609176893994,-0.0724781763636128,2.915
-0.09699432063933495,-0.006941038343375194,2.92
-0.10177259209525859,0.04940828880196326,2.925
-0.09026025563676864,0.07260762717230883,2.93
-0.08966476343926977,0.07779196788502979,2.935
-0.08743449372544927,0.09232856133434456,2.94
-0.07603969037455995,0.1068233848278745,2.945
-0.07663102975022569,0.10779834759372525,2.95
-0.08410664559057911,0.10357556180668424,2.955
-0.0764052831550321,0.1051799448066738,2.96
-0.0635379782956791,0.11219943486870301,2.965
-0.059398897535905076,0.10952732352310769,2.97
-0.05648257290110966,0.08847752526134883,2.975
-0.053777737326012334,0.0678442465155617,2.98
-0.05432807548044294,0.05688076507492987,2.985
-0.05350787843732621,0.03748122789532921,2.99
-0.05546524108795173,0.01588615343646933,2.995
-0.0599736620902244,0.01646129080160757,3.0
-0.05210323556395502,0.023761470465371196,3.005
-0.03839334664699088,0.01256671346873586,3.01
-0.040058054701680855,-0.004869609861904412,3.015
-0.04895301959499183,-0.01426144310531828,3.02
-0.04940003655602707,-0.019760014622410848,3.025
-0.04862705083425272,-0.021151385077373342,3.03
-0.04930489664470986,-0.018340714408214557,3.035
-0.04511566512436832,-0.015230708273616925,3.04
-0.041455627859263565,-0.012618459134227477,3.045
-0.03747201390890847,-0.017651602864839355,3.05
-0.023848556266395992,-0.028570158002562407,3.055
-0.010990015861149895,-0.02515865254795384,3.06
-0.010255588546806789,-0.01357550040705003,3.065
-0.008373357021321188,-0.021972137128943227,3.07
0.0022960547494844832,-0.040855157490819735,3.075
0.01014650067291355,-0.044166990791195446,3.08
0.012840039845566018,-0.035560112025522464,3.085
0.0177060507135712,-0.02233550230531009,3.09
0.024302669228222974,-0.005821768072223074,3.095
0.030603183107627177,0.0030454388639487096,3.1
0.03669615628960868,0.006563326797431907,3.105
0.03953406759589292,0.013708655628668723,3.11
0.03786194212334639,0.016755746876828695,3.115
0.03315153148604605,0.022747661089544575,3.12
0.026542985599939905,0.04355428321471495,3.125
0.022011177361808795,0.05328808162230863,3.13
0.019209908462943685,0.04339134143319058,3.135
0.010255946787881986,0.049755265130314516,3.14
0.0002359857703037941,0.0701844674165667,3.145
0.004940003655602704,0.07410005483404059,3.15
0.01771065177309096,0.07449872614125944,3.155
0.017474242155569256,0.08197525317160147,3.16
0.00626045907818679,0.07970114661116934,3.165
-0.0016044124547924862,0.08041801777081033,3.17
-0.006430605774619448,0.0919439292263413,3.175
-0.009755686456316415,0.08445718107730844,3.18
-0.009788609232566638,0.06403699069247334,3.185
-0.01732788149533251,0.05930606219633163,3.19
-0.03474227130192366,0.054281189474739706,3.195
-0.04135046150702914,0.04276715878049127,3.2
-0.034161069889811276,0.04480001540067326,3.205
-0.03485079164668125,0.040445118398863805,3.21
-0.04419444641521793,0.018391669757153686,3.215
-0.049178007926453715,0.014255006590495547,3.22
-0.05466883925308277,0.02113947760184418,3.225
-0.06093909048384618,0.008691464769862505,3.23
-0.0596640619363895,0.0067262774161508734,3.235
-0.06187521562806973,0.026000083080809786,3.24
-0.07097943876033977,0.019361270965630752,3.245
-0.0677172663276002,-0.0065223193955896664,3.25
-0.059069212102552726,-0.0053026141973866155,3.255
-0.06561134314086926,0.01165248719062008,3.26
-0.07144812759467682,0.020958763741851738,3.265
-0.06475503022958767,0.029717256176980403,3.27
-0.06422004752283514,0.029640021933616208,3.275
-0.06715359253068391,0.017428189459792222,3.28
-0.060866371743049874,0.016921208367879692,3.285
-0.058929943165644205,0.024490315567218184,3.29
-0.05863551626624832,0.02102884044726819,3.295
-0.043702609667895964,0.022022972442899413,3.3
-0.03374016771677775,0.039435261350098484,3.305
-0.04105121719667604,0.05669756256123831,3.31
-0.04435421549833777,0.06516218306762217,3.315
-0.04610654373858609,0.06331286551367196,3.32
-0.05518790455528677,0.05111447210956618,3.325
-0.05391133434593183,0.05013728048555668,3.33
-0.05235512052216866,0.0743163027074895,3.335
-0.06829949255978435,0.09961308255116363,3.34
-0.07008847819207943,0.10405950632837184,3.345
-0.05169349637860079,0.09658675783957982,3.35
-0.05327550083593814,0.09427282352342285,3.355
-0.06422292224349448,0.10194783212195555,3.36
-0.05892368021452741,0.10796013319210028,3.365
-0.061631888148793446,0.10111364338204816,3.37
-0.06744618153957567,0.09357589019577184,3.375
-0.05100309085545536,0.09780387203055124,3.38
-0.045577973136724015,0.09775620891655978,3.385
-0.059740488126525666,0.07737379346666999,3.39
-0.04953021519668605,0.04769724782982624,3.395
-0.03458002558921892,0.02964002193361616,3.4
-0.048458606462276003,0.03271149107915836,3.405
-0.05210523059717389,0.043278779082593824,3.41
-0.03982039773935272,0.036834368595228754,3.415
-0.048085025247415286,0.017119426300865624,3.42
-0.05329727494199222,0.009570951498309367,3.425
-0.04410567106846292,0.01410423293443643,3.43
-0.05440778390567802,0.013770517218266932,3.435
-0.056732653347714004,0.008976048942507586,3.44
-0.03008389542774933,0.0032407998361951833,3.445
-0.030615401179269492,-0.006086674838087719,3.45
-0.04970148052259356,-0.009699730313412251,3.455
-0.03192349508026368,-0.002061819755503312,3.46
-0.016846822050413334,-0.0033957629382803185,3.465
-0.029284620877012345,-0.023524220883818878,3.47
-0.01634989104009073,-0.02225799465118883,3.475
0.004557252842296024,0.03887283771958735,3.48
-0.0004578558794218924,0.1082352923717381,3.485
0.023525862822452153,0.0960881316671469,3.49
0.07556707305392638,0.029018274558999583,3.495
0.09537913176187851,0.010213385937290478,3.5
0.11921115262830059,0.012257528368716039,3.505
0.17428356094917305,-0.08880601355166282,3.51
0.1902058589329465,-0.2694942684848455,3.515
0.1538059810200774,-0.3685718406936081,3.52
0.09880007311205402,-0.32110023761417583,3.525
0.009736396130374634,-0.20322014783964787,3.53
-0.0749162038507504,-0.09410480835809398,3.535
-0.09025003691178524,-0.01347858056249361,3.54
-0.0864363826232154,0.04890655850962553,3.545
-0.10351932761494044,0.09670606113867075,3.55
-0.09156796168173967,0.11788415963204371,3.555
-0.0693747631918881,0.11433215006856905,3.56
-0.08269214856583257,0.10798796051217378,3.565
-0.08298934415751158,0.10761616203089722,3.57
-0.06137513145839722,0.11281848564760634,3.575
-0.07043332025298482,0.12409046347476331,3.58
-0.07668368468828783,0.1209418642216358,3.585
-0.04876312667482395,0.09324233907416575,3.59
-0.04343269365165708,0.07440351340685578,3.595
-0.06084890459965654,0.07309073684914044,3.6
-0.054073227977111074,0.05380469764782992,3.605
-0.04796393054300655,0.026628660033846452,3.61
-0.056979934027571025,0.03144069222786979,3.615
-0.05182379757073056,0.04633067136072841,3.62
-0.05049137583746221,0.038322319787456156,3.625
-0.062046191341007806,0.03336183953059063,3.63
-0.05187114007717792,0.0460578793834152,3.635
-0.040003703690003826,0.04827922286369907,3.64
-0.054674986221647036,0.04066877696360029,3.645
-0.05928004386723251,0.04446003290042431,3.65
-0.05085942366286106,0.04404275575497746,3.655
-0.06009474978298356,0.025100340554046446,3.66
-0.06109102545643168,0.014273591309101294,3.665
-0.044673566081141966,0.02773171448797691,3.67
-0.048042891434538874,0.042656973167449486,3.675
-0.052922885983874346,0.041453602226379345,3.68
-0.03141635059335854,0.03441235209570608,3.685
-0.01989678389665978,0.03559460951633753,3.69
-0.028400589703802392,0.04306363825654738,3.695
-0.027192254239338395,0.0421197575232297,3.7
-0.024874176677346066,0.028767997171604685,3.705
-0.0277150879552905,0.023785675247863722,3.71
-0.019069803742969328,0.038637167414153656,3.715
-0.014557776456852389,0.04942301254757908,3.72
-0.018089445461613975,0.04252044384689359,3.725
-0.0004633015516855149,0.04107589177709399,3.73
0.01944726427651647,0.05251211538067042,3.735
0.009660280285880124,0.05761708976464709,3.74
-0.0005231291739946805,0.06119379287214251,3.745
0.004814251451218541,0.0752189025953715,3.75
-0.0009776381924632039,0.08104001084523839,3.755
-0.010242495204453616,0.07320434386810042,3.76
-0.006134367276928317,0.07467457177607943,3.765
-0.007034880548910416,0.08414493868158511,3.77
-0.009880007311205414,0.0889200658008487,3.775
0.005182885184660221,0.09826870771864064,3.78
0.017976259858088366,0.1038807791929017,3.785
0.011141464340530186,0.08685271110921454,3.79
0.0062592062932859335,0.07144292678344767,3.795
0.011762478392668179,0.07634635299922367,3.8
0.011600915307560878,0.06985602043597113,3.805
0.002708767804200752,0.04594313553229458,3.81
-0.0063498387708626845,0.04062624815560351,3.815
-0.010204841134130671,0.04974848561213592,3.82
-0.007814233895110984,0.04176388626575305,3.825
-0.0048860106320770735,0.02377386014703806,3.83
-0.007109253666397546,0.015577185986960496,3.835
-0.013142871701808861,0.015172336113925447,3.84
-0.01943623878004877,0.01935292171410808,3.845
-0.02310169365743461,0.02515962972452849,3.85
-0.026239220210104712,0.022161994283600158,3.855
-0.03327749470894342,0.011563210034359254,3.86
-0.03612393759611989,0.0068341306956988136,3.865
-0.026421717641461288,0.011465194802963643,3.87
-0.016057172691138738,0.015286286608897897,3.875
-0.014639676215911775,0.011728782519176084,3.88
-0.014707544841493917,0.010261254775106893,3.885
-0.014230945390822527,0.01753704211923866,3.89
-0.015679481930509533,0.01838634214736382,3.895
-0.01482001096680807,0.00988000731120536,3.9
-0.013857426054800028,0.019147994988272014,3.905
-0.01530863463562896,0.046456173672012505,3.91
-0.010961715944987177,0.055268878508454564,3.915
-0.0023845871475280263,0.0445116247898423,3.92
-0.000184122982010753,0.048191299335891113,3.925
-0.003651703571616118,0.06589120731282423,3.93
-0.00982080053942653,0.07313360521722971,3.935
-0.015333353228791055,0.07512006664143252,3.94
-0.012056386201568146,0.08805781524957493,3.945
-0.009659409406453979,0.09931964195172183,3.95
-0.020573262410509878,0.09316928607968902,3.955
-0.025246241121976994,0.08808378133969638,3.96
-0.011741562137644272,0.10452812445591933,3.965
-0.00040811283102898854,0.12728697986872517,3.97
0.007962789066555643,0.14320750337773264,3.975
0.029138057866664485,0.15827393600322545,3.98
0.054774232998808715,0.15647691460885726,3.985
0.08027819325405693,0.13839038369259393,3.99
0.11157794891154195,0.14915664410113924,3.995
0.13435231960902777,0.15004096037980338,4.0
0.1459775999007429,0.034160694293932425,4.005
0.1593667717155825,-0.1360348210312482,4.01
0.1488412690704067,-0.19176963507512573,4.015
0.09115401436943328,-0.15210421787651837,4.02
0.019760014622410872,-0.12350009139006767,4.025
-0.0359891845787794,-0.06993540004373358,4.03
-0.07132049014078903,0.027726285083346163,4.035
-0.07135074554000859,0.07397004600909676,4.04
-0.05522641014141194,0.062378065650831885,4.045
-0.06530678092548076,0.060256987488119654,4.05
-0.07691512222287374,0.05385770123206867,4.055
-0.0541055923783591,0.041908699350846984,4.06
-0.03271807905278878,0.0657938550894015,4.065
-0.03418034684707973,0.08461581830522974,4.07
-0.03171382888578422,0.06160842018516193,4.075
-0.029934148036151343,0.04960917829764543,4.08
-0.03637792510738272,0.054307319851358865,4.085
-0.028153262032841703,0.041624210099431264,4.09
-0.019533150408252497,0.04332953252168204,4.095
-0.029573053656075998,0.0586562525000598,4.1
-0.023593506527322856,0.03669949103389323,4.105
-0.0017110874893329832,0.013406995038392638,4.11
-0.0059829544013994965,0.0413480464311056,4.115
-0.014487645726541515,0.08292343682301863,4.12
0.0010118347718576662,0.10541100858600048,4.125
0.0029430570852561947,0.10651466554249653,4.13
-0.010871912958344134,0.08039960301274086,4.135
-0.006509238999050348,0.07880447546849428,4.14
-0.012186522195396393,0.13219674925847538,4.145
-0.03952002924482164,0.15314011332368374,4.15
-0.035008226501851016,0.1189358732107895,4.155
-0.012821655269047532,0.12389581713182535,4.16
-0.030494763533894218,0.15288104143694337,4.165
-0.05215766948613117,0.13100759357572747,4.17
-0.03841470889481331,0.11430916809053382,4.175
-0.03548862222601737,0.13950065598594982,4.18
-0.050809277190784,0.13416950749030906,4.185
-0.040594478823615686,0.11273802720267098,4.19
-0.027105463421242443,0.14233505824060344,4.195
-0.03813438753940266,0.16958984663961743,4.2
-0.03323531702641688,0.14622762041017962,4.205
-0.006555850150896295,0.13198078481126208,4.21
-0.0008067187232143248,0.145973337022961,4.215
-0.005226495548969344,0.14415186350641512,4.22
0.007135754650511537,0.1277509926949777,4.225
0.016676285570014486,0.1123711815857314,4.23
0.018563513064161846,0.08888991856747187,4.235
0.027579517812682152,0.06690316560406152,4.24
0.028123594627980343,0.0575701369541459,4.245
0.02221825382010297,0.048340827393011904,4.25
0.03965240105093701,0.03579614194337764,4.255
0.06037657973571077,0.022924324548596456,4.26
0.05148662286636395,0.008385347101013543,4.265
0.04099128401370245,0.006477278874487671,4.27
0.04940003655602707,0.019760014622410806,4.275
0.050118124328888194,0.019451451314390522,4.28
0.04033361231476033,0.0021802276509338067,4.285
0.03526969800671177,-0.0011775645464873596,4.29
0.02612409054974241,0.011146981570749932,4.295
0.019529307413352497,0.01384906794943643,4.3
0.03109971289306652,0.006152400967992769,4.305
0.037891146424112745,0.006349353391305526,4.31
0.027483375892953993,0.01712902959145831,4.315
0.023773536596460927,0.02720294641040545,4.32
0.023796780434412797,0.03308913038432799,4.325
0.014271552034474194,0.04000582613971607,4.33
0.014893002647696477,0.0468113933479586,4.335
0.021663021161676288,0.0531111973211725,4.34
0.006425649710646579,0.0722711514557984,4.345
-0.01104736418872355,0.10455995837878546,4.35
-0.006788565367186266,0.1212127577504419,4.355
-0.007464828270425362,0.1112980567123761,4.36
-0.022994272392767575,0.10440365335341568,4.365
-0.030252809571219803,0.11827122045904596,4.37
-0.032527632495439426,0.13234033739711232,4.375
-0.04009055916590838,0.13108971706417674,4.38
-0.0448857377037075,0.12876477113085324,4.385
-0.05072378409064298,0.13806947796319594,4.39
-0.05630691146845436,0.14717445925430617,4.395
-0.044460032900424266,0.14326010601247843,4.4
-0.027649816509889805,0.13840411485223664,4.405
-0.024057154929984635,0.151542084183985,4.41
-0.012780796590860498,0.17547275977458165,4.415
0.014277419190203009,0.18328952158926878,4.42
0.03479031101878162,0.16531363773311356,4.425
0.05280639340953843,0.1393773602757554,4.43
0.08291278123822379,0.11245679187296356,4.435
0.11402846427344172,0.054141973902465466,4.44
0.13992101940616894,-0.056049286409215374,4.445
0.15589725834919488,-0.17568280326280025,4.45
0.13562652097199895,-0.2386939169879874,4.455
0.07277837000669954,-0.22329143934259588,4.46
-0.0023915536361671375,-0.15311836265210363,4.465
-0.06148389416039667,-0.06901051969029644,4.47
-0.08840516908110263,-0.005892079367729746,4.475
-0.08615067136965443,0.031869935231910534,4.48
-0.0797146232810702,0.056253677603024084,4.485
-0.07343167698990516,0.06437989405390443,4.49
-0.05314225496529288,0.056796188680033464,4.495
-0.03284651275468021,0.050047009900218736,4.5
-0.025855989770794757,0.04913393614255409,4.505
-0.01866503605917042,0.04946888224750617,4.51
-0.013814782492768744,0.04806504376922396,4.515
-0.015671070253599758,0.03682278705467592,4.52
-0.00494000365560273,0.029640021933616274,4.525
0.007625499826373729,0.05243495885486585,4.53
0.00016185114999353958,0.07536725825235648,4.535
0.0025845031186139734,0.06193936710414064,4.54
0.023688071557963895,0.05391050045995767,4.545
0.019521862573867586,0.07737237438990627,4.55
0.0008462404591936866,0.08577307388324022,4.555
0.006837622961914952,0.08416006467812809,4.56
0.007747913959126481,0.11649966001204101,4.565
-0.011560048328603639,0.13922101467225864,4.57
-0.010886151322325593,0.1137750733993933,4.575
-0.005450820171658289,0.10480373903986291,4.58
-0.026887355260243457,0.1372750652353545,4.585
-0.031416933152503476,0.14711807096657434,4.59
-0.0061672824757951095,0.12475476891672241,4.595
-0.004514851209540755,0.11752303310943646,4.6
-0.018279433038521635,0.12747927856834704,4.605
-0.011533107620453236,0.1330109023481667,4.61
-0.012625685799761232,0.13418528436455116,4.615
-0.02718049257624935,0.1325107473208491,4.62
-0.019573440179409266,0.12610753650648518,4.625
-0.01216107128009374,0.11773685918634846,4.63
-0.02627183519194594,0.11367154551468187,4.635
-0.018241463206714735,0.12024840202235777,4.64
0.01006153996686186,0.12226498489061007,4.645
0.009880007311205403,0.0988000731120541,4.65
0.00035023931903616827,0.07569723524047833,4.655
0.010516204306305885,0.08973869408189146,4.66
0.011087752151221169,0.11687352405085197,4.665
0.005389044333896717,0.11315469891194999,4.67
0.020921671574126582,0.08447530577916322,4.675
0.024295911151685314,0.06830637877894122,4.68
0.004533035779483484,0.08165778282864762,4.685
0.015277674864933234,0.10121500397631687,4.69
0.04617388110604069,0.09897314209641572,4.695
0.04212145865063487,0.08590212396156659,4.7
0.0296760097470767,0.07863060778437361,4.705
0.04142359661995674,0.07067840099993014,4.71
0.039871683008968775,0.07323453961726197,4.715
0.024965399427971192,0.09285059818217878,4.72
0.033280223991869785,0.09441780789755885,4.725
0.037810191076983836,0.07973575531564214,4.73
0.02140560212148455,0.08984281264408474,4.735
0.02682528181458322,0.10513677645490678,4.74
0.03994138539268671,0.10368258707138692,4.745
0.015475894304653593,0.12059549515836458,4.75
-0.0072118898687725886,0.13249344260953141,4.755
0.0011953426221072813,0.09230282479329123,4.76
-0.007665638500417504,0.06502964711489392,4.765
-0.031960543405937646,0.09483898494748196,4.77
-0.029640021933616235,0.10868008042325945,4.775
-0.0291900167839303,0.09489180878306523,4.78
-0.04646289120090784,0.10802633442402214,4.785
-0.03762389574834277,0.11573021535534883,4.79
-0.02029626381834818,0.08871791078879408,4.795
-0.03777542360828758,0.08158261521475657,4.8
-0.05138869452592505,0.10413352635109666,4.805
-0.03888775447225875,0.11253819519724542,4.81
-0.042086352324927544,0.10065894126532406,4.815
-0.05458652601478739,0.0831037396213124,4.82
-0.05051090408010646,0.08072802035239564,4.825
-0.055137636817958545,0.09987427302720811,4.83
-0.062184916477489006,0.09708842454605272,4.835
-0.04063292716942396,0.07410511995432542,4.84
-0.024548705511620132,0.08716874760932616,4.845
-0.03599147440855003,0.10057438284184271,4.85
-0.0374347690105791,0.07117156830773846,4.855
-0.029888496337848715,0.06862294919886262,4.86
-0.027641296724059586,0.09771453417082523,4.865
0.00019857457671518144,0.09739154842067238,4.87
0.03888031183355407,0.123779182501251,4.875
0.04667533088857523,0.1753087411645542,4.88
0.06395941174923696,0.12635349068716692,4.885
0.11788291832048024,0.04189202243050304,4.89
0.1523659489313263,0.04101878507698638,4.895
0.15808011697928653,-0.01976001462241083,4.9
0.16529715013854637,-0.18509663040710986,4.905
0.1399266241324967,-0.22148135692230753,4.91
0.0687468725607623,-0.1194308752134812,4.915
0.0022448727733352237,-0.07709091899453693,4.92
-0.051149503638772034,-0.04482047030663947,4.925
-0.09443754026164065,0.07043541795736756,4.93
-0.09040955253751455,0.14761433896422219,4.935
-0.0597436931197937,0.15399335490043461,4.94
-0.056648743019200795,0.1782368172671315,4.945
-0.05713887036154191,0.18706668824089595,4.95
-0.038454647972526984,0.15642422757384886,4.955
-0.03510056782983305,0.152728111613249,4.96
-0.04136859688017588,0.15609476849084586,4.965
-0.03488232606671541,0.13002850273003286,4.97
-0.040394168402545,0.1187993303086479,4.975
-0.05127860841588022,0.11390994610984664,4.98
-0.03790258612469309,0.08433868006807536,4.985
-0.030233565400751852,0.06852817464860748,4.99
-0.04223535809898435,0.06836979051304881,4.995
-0.03838182715144784,0.0621457002880623,5.0
-0.03241512679886721,0.08047431659539576,5.005
-0.046194614491725156,0.09846564404309999,5.01
-0.045459389931209335,0.06868732210278253,5.015
-0.03666092849301175,0.05002826391532685,5.02
-0.054340040211629706,0.06916005117843793,5.025
-0.05922661451401513,0.06401311605208891,5.03
-0.03158791178545622,0.054143941304429226,5.035
-0.02746068709320642,0.0766262601567635,5.04
-0.045423815950554156,0.07579545992720277,5.045
-0.040532799966389324,0.05568263653307466,5.05
-0.033383802644391815,0.07278192937927899,5.055
-0.03912257003352139,0.08205647317642661,5.06
-0.032505791095125046,0.054075497667150384,5.065
-0.030196007556611212,0.05371215503283024,5.07
-0.040470993074356636,0.08156686207122145,5.075
-0.022602690506353124,0.0887994448750988,5.08
0.007432247697126023,0.08816898386046754,5.085
0.004522278616942162,0.08674538576128331,5.09
-0.0006237346565298985,0.07461344446347107,5.095
0.017037079134692736,0.07893232499757895,5.1
0.025683148225285425,0.09121074680072509,5.105
0.027854819547842267,0.07417340140547139,5.11
0.03905337241243315,0.05563424180032666,5.115
0.03749573962853629,0.061809166290937134,5.12
0.03485337885743906,0.06503582195324548,5.125
0.05637488049095413,0.06583988779553887,5.13
0.0690477435907134,0.08138220619152517,5.135
0.0601308844567067,0.09562658418944567,5.14
0.06379756816081673,0.10166943149227214,5.145
0.06916005117843783,0.10374007676765674,5.15
0.05750086472859964,0.10476939001687591,5.155
0.056389693603272575,0.12628377860006687,5.16
0.06026098877167554,0.1524365181972017,5.165
0.04507533161568812,0.13752953723631245,5.17
0.041991188285225585,0.11515671356672312,5.175
0.05803579419223546,0.12612368350027459,5.18
0.04949668333780921,0.11828479803276304,5.185
0.026396795996474157,0.08391033153995171,5.19
0.021013816836871,0.08854239031532973,5.195
0.01232782229024498,0.10900324800626579,5.2
-0.005820649631726837,0.09220825514962758,5.205
-0.01223335912423848,0.07870756299974092,5.21
-0.020797908175995465,0.0910205486977827,5.215
-0.03428550254182629,0.08970966930447295,5.22
-0.027582791599111263,0.07710916264341647,5.225
-0.01886869595960264,0.07340932963117634,5.23
-0.0316036740474367,0.0699249951319502,5.235
-0.041145749004967466,0.0672990104457411,5.24
-0.03895504509103613,0.06177825489143753,5.245
-0.0396982355904439,0.049925858487151,5.25
-0.03638256803565669,0.05830891930474853,5.255
-0.035327416125517715,0.07477910149538017,5.26
-0.047241547313226336,0.0616572771949981,5.265
-0.043925984722695585,0.05520521089429631,5.27
-0.024700018278013554,0.0790400584896433,5.275
-0.0292926717725533,0.08163286901315708,5.28
-0.044052630937571585,0.07365878540126723,5.285
-0.03631554645696596,0.0960075607134718,5.29
-0.0280925049461057,0.0968997273967588,5.295
-0.029795649685716637,0.06578919370623675,5.3
-0.02219810359647832,0.07547139714211579,5.305
-0.017186497280552642,0.10083113480296643,5.31
-0.019636145555969733,0.08404945395935899,5.315
-0.009566271939293117,0.0766337465156562,5.32
-0.003450494313863475,0.09632926472301975,5.325
-0.01558056540088978,0.08745592610155971,5.33
-0.01622881400053577,0.07069414003780164,5.335
-0.004460689002821451,0.08217988830025597,5.34
-0.004664152891685552,0.09337566266944371,5.345
-0.00596526914037116,0.10904463221331245,5.35
-0.006580685293842074,0.13860584664880182,5.355
-0.021761796946716264,0.14094397932247507,5.36
-0.027301960580791675,0.13350357478897196,5.365
-0.010020572682552438,0.15423893093514743,5.37
-0.002906772637782043,0.15559898274031905,5.375
-0.01098980946525443,0.1356472932869437,5.38
-0.015142372970009711,0.15793762266646938,5.385
-0.018905951158027696,0.17860099694121026,5.39
-0.01741845075320041,0.14470436815240773,5.395
-0.009880007311205386,0.13338009870127301,5.4
-0.020292616579898518,0.16745882611890783,5.405
-0.031432351329283355,0.1632048362401812,5.41
-0.01284813617865212,0.12275979074821045,5.415
-0.002422399873852188,0.09970408433244246,5.42
-0.021537666519505814,0.08377459789315982,5.425
-0.026930183069772413,0.07980775258662672,5.43
-0.020563582711551807,0.10271721994524755,5.435
-0.0326447433098819,0.10579518986893746,5.44
-0.03796833478809766,0.07715729540017281,5.445
-0.029450432494144346,0.06553798487095722,5.45
-0.035199008518238255,0.06917213731063025,5.455
-0.03445985394682865,0.06494958420467543,5.46
-0.014553188682222632,0.0661323304402412,5.465
-0.013993612684804542,0.0692094016797713,5.47
-0.024679626258570127,0.07044712422972418,5.475
-0.0136180696854881,0.08587672826283316,5.48
-0.004550517622271342,0.0877819242712888,5.485
-0.007067228140581199,0.06400558918332495,5.49
0.003970391510472974,0.07929675153672563,5.495
0.014408770104744856,0.138611428320551,5.5
0.01769002158525849,0.16626341774270845,5.505
0.044219431520932995,0.15622393158780143,5.51
0.07959884728742099,0.13568356629396985,5.515
0.09799502211047224,0.08817925772149138,5.52
0.12844009504567036,0.034580025589218986,5.525
0.17747886814595698,-0.015307992904141102,5.53
0.20493293195121398,-0.1287254733168643,5.535
0.19230531954681143,-0.2584871416107575,5.54
0.135038964659667,-0.2432554959642288,5.545
0.0457353277994951,-0.1096630776191717,5.55
-0.02070032888912488,-0.014624909079649775,5.555
-0.045370399674849723,0.04615859903832812,5.56
-0.06244380680306776,0.12881237347623217,5.565
-0.06613125762277933,0.17341217526853264,5.57
-0.04299104330253658,0.16514767619939139,5.575
-0.02956988578805418,0.16880852848403263,5.58
-0.03223445121734503,0.17497252784747888,5.585
-0.024152312968782553,0.1588896689242204,5.59
-0.019526611602692135,0.15735628101654212,5.595
-0.022436212234393814,0.16706892160768366,5.6
-0.006631411122424253,0.15824441618696522,5.605
0.0095390436322486,0.1560255380965747,5.61
0.005180595135579267,0.1672545700594213,5.615
0.007007160415427463,0.15833286312077288,5.62
0.015264132643353042,0.13490390234258715,5.625
0.009333456141887082,0.11600785452830036,5.63
0.0049897189597020745,0.10282937262761452,5.635
0.004037298900391277,0.10797445021222984,5.64
-0.0058697232571133665,0.11516601109535214,5.645
2.3684757858670008e-17,0.0938600694564514,5.65
0.019359030566759243,0.08279001096390574,5.655
0.013596647414218115,0.10340461238720312,5.66
0.00016713147420333556,0.09350752098375918,5.665
0.005317626708427228,0.059499438935925304,5.67
0.0015019443797542106,0.07509508249643389,5.675
-0.009815713194338705,0.10755314681665633,5.68
-0.004641587020574142,0.096188110584989,5.685
-0.007032325537692165,0.0843037761304147,5.69
-0.01747380001032109,0.09675313189390022,5.695
-0.001389536396250832,0.09436109292190856,5.7
0.01491536107591646,0.08365643652346623,5.705
0.003921451178372393,0.08201426348551641,5.71
0.0028322820684948784,0.07474073095383477,5.715
0.014589082389626404,0.07807587227992759,5.72
0.008830520386384893,0.09154547257323663,5.725
0.006645482782209253,0.07296322618827294,5.73
0.01852540426210215,0.055994731712391325,5.735
0.018584781305597257,0.09553060014126852,5.74
0.023154812648879027,0.13267446172046432,5.745
0.04498185910766473,0.11946920633719932,5.75
0.04868901108596649,0.11253674730751162,5.755
0.039036394764852114,0.1305648700583288,5.76
0.045889607638480316,0.13736300867118933,5.765
0.0484354883238516,0.1429086722599626,5.77
0.03952002924482162,0.15314011332368385,5.775
0.04484722221002107,0.14489266746003016,5.78
0.04893737220552988,0.13775914120905855,5.785
0.03996039304496699,0.14744388736375869,5.79
0.047561464856835135,0.14169317160834116,5.795
0.06178318287026476,0.12458602696658479,5.8
0.05303571060153724,0.13271626400772793,5.805
0.0446236287007493,0.153745173002857,5.81
0.05042562944755483,0.15710264935410756,5.815
0.04751145185588408,0.14652432379035402,5.82
0.04211030884174788,0.14299663098804113,5.825
0.044475867959698975,0.1595238371251375,5.83
0.03640398983884951,0.17617310624251167,5.835
0.026274156114623394,0.1612504730274647,5.84
0.03384668637889824,0.13444012337690947,5.845
0.03939819762216337,0.12726097256798732,5.85
0.03063815554021204,0.1173657262098688,5.855
0.024948401187436738,0.09268643520016015,5.86
0.023261835350800043,0.08208976936621294,5.865
0.01855475968338742,0.08427167561845011,5.87
0.01566223905937317,0.08057044799266018,5.875
0.011213223473655613,0.07644326522524253,5.88
0.004325107667208974,0.06740912452333464,5.885
0.004051616579119823,0.05422948720914658,5.89
0.0044755369375688026,0.06158998003263517,5.895
-5.26327952414889e-18,0.0741000548340406,5.9
-0.00038741240204791017,0.06206181050921443,5.905
-0.0014483316268023494,0.05377854168907188,5.91
-0.00914119971110701,0.06351907408559984,5.915
-0.00949695233717364,0.059715365293321165,5.92
-0.003510976723938463,0.055648725389478515,5.925
-0.00448359862756126,0.0746088903521635,5.93
-0.0024776814107140463,0.08075828641830302,5.935
0.006217726788610396,0.06726400573993956,5.94
0.003928554149653404,0.07538790280717261,5.945
-0.006142161940891273,0.09587818350157865,5.95
-0.009989370767816091,0.09857736162942946,5.955
-0.012914376417364277,0.09699697731214024,5.96
-0.015574042707283195,0.10108070567140541,5.965
-0.014725405006574443,0.10791236528317871,5.97
-0.02194658962285664,0.1264622450922427,5.975
-0.03239123696465687,0.14129226411289808,5.98
-0.027020964799490257,0.13146127913026098,5.985
-0.017505316108194623,0.12183728888241586,5.99
-0.021850209771087484,0.1319666384181705,5.995
-0.028787256409752226,0.142046291186574,6.0
-0.030893526379061478,0.14512704792892425,6.005
-0.03524156714909917,0.1484283563597486,6.01
-0.03889209967594487,0.1437824360565363,6.015
-0.04073057603855218,0.13110218340326962,6.02
-0.04446003290042436,0.12844009504567025,6.025
-0.04091828426733191,0.14527990356284767,6.03
-0.030025505483784055,0.16480000268929632,6.035
-0.02889566002345868,0.15644781710054362,6.04
-0.0349641408916009,0.12842965498371614,6.045
-0.03306821909141788,0.1277141328789252,6.05
-0.029381394794545893,0.1502694709371914,6.055
-0.03249837011035369,0.14841076583665228,6.06
-0.03449574621376034,0.13097307218288454,6.065
-0.03136849342863427,0.12863828378383324,6.07
-0.026284261451034876,0.12309972970261679,6.075
-0.019308800673518086,0.10792977116481034,6.08
-0.01450954848735802,0.10226063241903945,6.085
-0.016591897225546322,0.09038190791923233,6.09
-0.019727649804167663,0.06545686690001226,6.095
-0.017557996433264954,0.05864428304696326,6.1
-0.013596683987006392,0.06682232459753075,6.105
-0.014100480076206437,0.06181624618545872,6.11
-0.018670822859110005,0.04664531519418408,6.115
-0.018903903143157038,0.0306456523980376,6.12
-0.00916942525089454,0.020081202483180374,6.125
0.0036396663604672153,0.022312478823804487,6.13
0.010278963453099631,0.018335096762948342,6.135
0.010430703821565098,0.010843665350593492,6.14
0.010351041481201822,0.047548696210024215,6.145
0.019760014622410838,0.11362008407886225,6.15
0.0396187573209644,0.1411605757270989,6.155
0.05421177831449385,0.13379950604483437,6.16
0.06234339529856977,0.12130675132568298,6.165
0.09020786310084333,0.08307976805931472,6.17
0.13870046413036816,0.007342471245606466,6.175
0.16748366007485035,-0.10174870475904704,6.18
0.1540251500900395,-0.22236582066843175,6.185
0.10781805236346403,-0.257301623131613,6.19
0.03590959551665862,-0.16349716029729372,6.195
-0.04407535461557626,-0.06197176816070994,6.2
-0.09587784382668108,-0.017164588350892844,6.205
-0.11182372413765307,0.04948057674650182,6.21
-0.11371572278532026,0.1287311035808722,6.215
-0.10483242879535543,0.14400991958290144,6.22
-0.08365705376867245,0.13602452026027445,6.225
-0.07244631274312122,0.1478355704916589,6.23
-0.0780551779323778,0.14146242734845127,6.235
-0.07713133199573413,0.1338554963717898,6.24
-0.06697006376067541,0.15353895841881446,6.245
-0.06709134504527879,0.15406773164050463,6.25
-0.07163831940876024,0.13978352921642134,6.255
-0.06233299482621995,0.15610688393466907,6.26
-0.047752845500961545,0.16088374080005804,6.265
-0.043455814245645055,0.12714142136588605,6.27
-0.044460032900424364,0.1086800804232596,6.275
-0.042058518503857875,0.10255695638767455,6.28
-0.03754769149022791,0.07621264640919709,6.285
-0.03465530995827977,0.06761738708138437,6.29
-0.03643314299393835,0.08127625830317653,6.295
-0.04043443681089945,0.06499946190423549,6.3
-0.03702072792164764,0.03699618300083576,6.305
-0.025991432768779587,0.037578037498790955,6.31
-0.0191605147771462,0.03798387815795945,6.315
-0.019356371033126984,0.025666800252836207,6.32
-0.019903668575510333,0.030315605359866923,6.325
-0.019773648485818588,0.039485991578019373,6.33
-0.020050459575995758,0.025517107980879424,6.335
-0.018973774198015356,0.007581129928921517,6.34
-0.015221014754047442,0.009237425869384471,6.345
-0.004909909447188213,0.020511258576247887,6.35
0.01048595397551939,0.025700724493175366,6.355
0.01574462423525921,0.02827396356098065,6.36
0.0076903806191698934,0.040636439135458655,6.365
0.005881809601187527,0.05828726837673667,6.37
0.013632494905263089,0.0674895553576909,6.375
0.012411017706057638,0.07432428812947547,6.38
0.0042524566039746385,0.08513066082745382,6.385
0.0062717041737078,0.08675593178143558,6.39
0.013761465711603213,0.08092617742682971,6.395
0.014820010966808118,0.08398006214524599,6.4
0.01405503423844828,0.09156977664929919,6.405
0.015421821695816679,0.09480244747337244,6.41
0.01498544252038977,0.09440112870043312,6.415
0.014363757916281021,0.08595498014621655,6.42
0.014746228029807637,0.07793754919454599,6.425
0.01127910799448418,0.08583189473977838,6.43
0.007020639930837941,0.09354546485518618,6.435
0.011510386164876823,0.08751374031304936,6.44
0.02202596902543818,0.08678348966535879,6.445
0.02547240816366592,0.09046517579246009,6.45
0.019289268112997283,0.0835026406775369,6.455
0.014656521210555745,0.08725536117802946,6.46
0.01523208303696988,0.11267626538198944,6.465
0.010500195367872096,0.12830923346329365,6.47
-0.0007869246058922175,0.1220541766966633,6.475
-0.005144734898387196,0.10765611539001482,6.48
-0.0007943355521429475,0.08783315290210239,6.485
0.0011423184240036766,0.07171887359297756,6.49
-0.0004309592956595317,0.06933174130458587,6.495
-0.0030816486593352884,0.0667640409199907,6.5
-0.011282494793605553,0.0577009815676909,6.505
-0.020586349570915128,0.04788797597966553,6.51
-0.023465903737193147,0.029205238806678437,6.515
-0.028661485925865697,0.012929547787944978,6.52
-0.039520029244821654,0.02470001827801366,6.525
-0.04028284068666038,0.03989373424554877,6.53
-0.029632330271243918,0.024647577219019834,6.535
-0.02463362429686895,0.005645393033042801,6.54
-0.025941748139376736,0.009118456931242096,6.545
-0.02343708702280691,0.016350720933316375,6.55
-0.0200531596546679,0.021792473134793492,6.555
-0.019676022486240993,0.03715546185120375,6.56
-0.01988701627049948,0.05115872444659025,6.565
-0.02284414032568242,0.056434005032441587,6.57
-0.02687583181298186,0.0676579908070795,6.575
-0.024358010745882584,0.08490918582029715,6.58
-0.019720079278537545,0.09317482109554225,6.585
-0.021290424152551047,0.0947916517008407,6.59
-0.02456911691561339,0.10295912424519643,6.595
-0.026802447631563857,0.11514782946408339,6.6
-0.03170186999479904,0.11830980516931298,6.605
-0.03467105752556538,0.11412134707459477,6.61
-0.033491417288806447,0.11380263534551119,6.615
-0.03544681085447206,0.11252560792151943,6.62
-0.03632866754462085,0.10486910234682152,6.625
-0.02786413140097507,0.10849148742109972,6.63
-0.01896022849160892,0.13187429761746178,6.635
-0.01179241105683937,0.1558850104189238,6.64
0.00901089497410982,0.16954801850887,6.645
0.03952002924482163,0.1729001279460947,6.65
0.06049104370166406,0.15844625531847267,6.655
0.07732474561879372,0.1296031129196569,6.66
0.10470130562252034,0.08680488755557175,6.665
0.13476937393400432,0.0005200099071029267,6.67
0.1508888212151792,-0.12168766671882786,6.675
0.13803782747430984,-0.19526837607926242,6.68
0.08392118764187784,-0.17025422613142463,6.685
0.004974306701232658,-0.10091893588408102,6.69
-0.058677640616967994,-0.04662151739848741,6.695
-0.09118228863719051,0.0004916514382828112,6.7
-0.1041559535018852,0.05234687861972549,6.705
-0.10364616551163965,0.08216719758572341,6.71
-0.09230239448729147,0.08184093346157333,6.715
-0.07969853469804945,0.08773857984790807,6.72
-0.0714598488551847,0.10992747808788589,6.725
-0.06911962029966423,0.10765698265349469,6.73
-0.0731349750577579,0.07136708477255797,6.735
-0.07627870023656758,0.04345791452793896,6.74
-0.07271945784001609,0.039898187634793546,6.745
-0.06635570931678092,0.04292197035768666,6.75
-0.05861407357272214,0.04973340612132969,6.755
-0.048021396653476794,0.054034311029343016,6.76
-0.03817036064738843,0.04145651424900539,6.765
-0.03025201102484931,0.031133358519632084,6.77
-0.02470001827801348,0.044460032900424225,6.775
-0.026570010009834038,0.06477147913516487,6.78
-0.03114132659025591,0.08165029989758754,6.785
-0.02987934988942663,0.1014907488080209,6.79
-0.03211199589493496,0.11311044436762398,6.795
-0.04299744618872218,0.11361363991263575,6.8
-0.04593207569447208,0.11744623666422382,6.805
-0.03912509871140202,0.1182004727897749,6.81
-0.04078017299271127,0.11324651570159651,6.815
-0.04837109570814725,0.12225994898616295,6.82
-0.04876218954620311,0.13493657992836566,6.825
-0.04970382752329998,0.12759026756594613,6.83
-0.05696368861606702,0.1198972146934791,6.835
-0.059119111384643944,0.13000993525787055,6.84
-0.05461223617536131,0.1382367183936323,6.845
-0.05161547377173667,0.13605452040823207,6.85
-0.04693768831680073,0.1312199533273442,6.855
-0.036631221893752786,0.12094127166647171,6.86
-0.02766948180025775,0.11051398406908129,6.865
-0.024129757520404,0.10872116173747744,6.87
-0.021255197517769005,0.10605388332319489,6.875
-0.015544826104645987,0.09745155088753044,6.88
-0.009153520348238676,0.0875577064331502,6.885
-0.0035018403741692026,0.07454691526966503,6.89
0.006833920024215632,0.06505455106660801,6.895
0.024700018278013536,0.06422004752283521,6.9
0.03834476876871859,0.055124681453360955,6.905
0.03783995002008272,0.03674995294812947,6.91
0.03439274271454526,0.029696093051897354,6.915
0.03986640906723137,0.027439787442999734,6.92
0.04518480596925178,0.01533550294781498,6.925
0.04113404341926713,0.00570707911967967,6.93
0.03687195435329436,0.004586297633825298,6.935
0.040636185143321076,0.005257729362434821,6.94
0.04482824122449659,0.009111714488576386,6.945
0.041383065105824984,0.0068488355614339256,6.95
0.03417433140145419,-0.0055611953058903995,6.955
0.030064447753246,-0.0032072180476103523,6.96
0.029836383034192726,0.01175742578177006,6.965
0.029754694380652976,0.010319971587190509,6.97
0.025216555673770395,0.014041769447755223,6.975
0.01626233146817957,0.050950508226217064,6.98
0.010209838989552945,0.08216132533872655,6.985
0.010297624537816172,0.08241338606743807,6.99
0.008987351553976486,0.0873437496295721,6.995
0.002345252880029252,0.1080299964667265,7.0
-0.004500583906343904,0.12162413432011542,7.005
-0.010784623537898491,0.1294595426502956,7.01
-0.019971888751134377,0.13474865875225206,7.015
-0.030734016570876578,0.129121485471758,7.02
-0.03952002924482164,0.1284400950456704,7.025
-0.04182412561349975,0.14494325283912846,7.03
-0.037237698111659154,0.1551686524539444,7.035
-0.03838575049708064,0.14907657897537138,7.04
-0.05131793455164912,0.14662537517853497,7.045
-0.061187288611148666,0.14761943597983632,7.05
-0.06334290584992452,0.136765491800887,7.055
-0.06915534206917885,0.12987938515218633,7.06
-0.07453051978710996,0.14808310104427444,7.065
-0.07386811057433078,0.16772566467969222,7.07
-0.07583720821093233,0.16009038679103774,7.075
-0.07354993602717247,0.1480620982742029,7.08
-0.061472353088089716,0.15719520575279408,7.085
-0.06282993562333747,0.16406348600273657,7.09
-0.07398243932796701,0.15385328060434192,7.095
-0.06233618467080196,0.1470013978354296,7.1
-0.04547261995327533,0.1376224153042506,7.105
-0.052393098029534665,0.10931779527126645,7.11
-0.05324223984208137,0.08904706440048941,7.115
-0.03504427114441053,0.0892516458448501,7.12
-0.029229707209552754,0.07967291825756823,7.125
-0.025140600195180305,0.06690418273287387,7.13
-0.0017581593247215387,0.08232161021166011,7.135
0.013033812602505069,0.10572502971269591,7.14
0.020876623677977216,0.10438410430563076,7.145
0.05434004021162967,0.0790400584896433,7.15
0.08911153361746942,0.03433129702319922,7.155
0.1063359012631672,-0.016715542229834304,7.16
0.14597190661357462,-0.06619824556566956,7.165
0.19975904040571632,-0.15566287496371675,7.17
0.2088375141529732,-0.2872937150198698,7.175
0.1711161653587996,-0.35147235342924793,7.18
0.11275976858013712,-0.284744602951544,7.185
0.040679448297594165,-0.16621461327080317,7.19
-0.017288749049527985,-0.06719752169980486,7.195
-0.04170542065742393,0.01568607698701523,7.2
-0.05513574239530501,0.07139456893069908,7.205
-0.06015306866476228,0.09098489113535378,7.21
-0.045216040280671346,0.11090161972189493,7.215
-0.03458638470093278,0.13732838705207184,7.22
-0.03877402737167256,0.1374933998757689,7.225
-0.03850640180473721,0.12546455289439656,7.23
-0.03851892347887353,0.13495661541313259,7.235
-0.044215509939269045,0.14853830488625352,7.24
-0.044130365881404315,0.1474698310422294,7.245
-0.049924463682206904,0.15320561744827943,7.25
-0.061812695800786584,0.16797953427800585,7.255
-0.05188332486094712,0.1667892460994212,7.26
-0.03721156348653048,0.15789086158535856,7.265
-0.04881619531796522,0.16096803445120414,7.27
-0.05928004386723253,0.15808011697928656,7.275
-0.05362062991839861,0.14555680465278958,7.28
-0.0583202367412139,0.15771296166726118,7.285
-0.0645801520233109,0.18192177080530106,7.29
-0.05844593693593116,0.16744958905743706,7.295
-0.06203254328904059,0.13586275643322937,7.3
-0.06653154951011232,0.1419760778190106,7.305
-0.05161571531265193,0.16252059781384476,7.31
-0.04512532930435299,0.15470288759999384,7.315
-0.053808376196464565,0.1370686862994466,7.32
-0.050569166825272446,0.1295631239198518,7.325
-0.04991593675004234,0.12308814991027922,7.33
-0.06043748996768979,0.11926254511596358,7.335
-0.05188898457354383,0.11651638145587638,7.34
-0.039467154044871555,0.10895045552268375,7.345
-0.04875972495797401,0.1139412361998668,7.35
-0.04319259809326718,0.1267462291448926,7.355
-0.017575369129602388,0.11367947884651751,7.36
-0.017034346109462282,0.09174824931025831,7.365
-0.024138868149553936,0.0974147381935925,7.37
-0.00317593030518668,0.10588791190169373,7.375
0.015119037817977498,0.09452134437217462,7.38
0.014757277829548375,0.08919389946421244,7.385
0.022887380123560102,0.09377467582850237,7.39
0.03738250166354853,0.09256980922112458,7.395
0.04940003655602708,0.09386006945645144,7.4
0.0689803238584693,0.09201884750232611,7.405
0.0830723264355771,0.07706252676412442,7.41
0.08371962992281798,0.07711128979266596,7.415
0.09152781715086171,0.09302181833658706,7.42
0.0997051873643651,0.08112548069308184,7.425
0.09155783263982992,0.05251483152369208,7.43
0.08519683216826095,0.05515524232821467,7.435
0.08266235310385969,0.07801351759886388,7.44
0.06626306982582293,0.09077908638534182,7.445
0.05241866582796623,0.09938853398163805,7.45
0.048954849843183997,0.1035908418290937,7.455
0.02966115618459851,0.09423936997140785,7.46
0.002788666554321702,0.08688622437157148,7.465
-0.004886456544372222,0.09323475917643767,7.47
-0.009894245202984353,0.10167154168973606,7.475
-0.026145027458430607,0.10392594599694246,7.48
-0.03454903106009409,0.10348983668733325,7.485
-0.03341018701864348,0.1077706723851495,7.49
-0.0354009233619432,0.11460753192661186,7.495
-0.03836862929766616,0.1055728062503086,7.5
-0.044401203189386895,0.08459729384215071,7.505
-0.05561571336616358,0.08587244339634614,7.51
-0.05985840941029854,0.10543508110530458,7.515
-0.05975986411949699,0.10437555964207715,7.52
-0.06916005117843788,0.08892006580084866,7.525
-0.07885892875617086,0.08933636339532926,7.53
-0.07724661246588367,0.09578108124008905,7.535
-0.07407452232244813,0.09409749096672615,7.54
-0.07636186666543196,0.09550423475253347,7.545
-0.08025164657314791,0.09964097928780681,7.55
-0.08358584979241859,0.09899886841370163,7.555
-0.08297799822521557,0.09946039935894353,7.56
-0.07817955550903416,0.09784249498644587,7.565
-0.07749081622223268,0.09005377475140468,7.57
-0.08225199684813062,0.09297262167598315,7.575
-0.08387209788517497,0.10971451827354677,7.58
-0.07860263306347749,0.11884551765246631,7.585
-0.06900007372267368,0.11755974608134176,7.59
-0.05971977937379522,0.11842386673967221,7.595
-0.055360087051058444,0.11921476082215694,7.6
-0.05336646946188714,0.11895174537142217,7.605
-0.04650531127075235,0.1263036209561707,7.61
-0.03402345021850639,0.13652713306840125,7.615
-0.022189491434806585,0.1375324471185697,7.62
-0.01601006613625031,0.130756772586259,7.625
-0.010991262651066336,0.12452730325684981,7.63
0.002123658148754049,0.12379581378107575,7.635
0.019317168535415673,0.1296909490634803,7.64
0.02899111961295354,0.13786664670029816,7.645
0.03458002558921887,0.14326010601247846,7.65
0.0421832698109317,0.14630004115037892,7.655
0.044122096605665725,0.15024678479867154,7.66
0.03991705053231663,0.15714810264165896,7.665
0.03905165465277233,0.1618691052968291,7.67
0.03930353760019155,0.154182590543796,7.675
0.03877191870860486,0.14017730507100923,7.68
0.04452821285447424,0.139999123270027,7.685
0.049531457514780414,0.1493856566817639,7.69
0.04311788686605239,0.14191003969313368,7.695
0.03545492308890654,0.11733374793505064,7.7
0.03460176289902981,0.10362385677841314,7.705
0.03418299594818035,0.11538287392945272,7.71
0.037067725239101124,0.14330952385816106,7.715
0.048552154257728346,0.1671374025199443,7.72
0.06118411356334182,0.1657201453627976,7.725
0.07553213599029784,0.13192580528297126,7.73
0.10234386870669716,0.06611096215309731,7.735
0.13596769717321902,-0.04137885142807632,7.74
0.15567799171128233,-0.17674345366794225,7.745
0.14455784826405396,-0.27678241180476026,7.75
0.09616506051384835,-0.29477823532817105,7.755
0.019149675516075604,-0.24894590297327804,7.76
-0.06329431791313471,-0.16989276709058176,7.765
-0.12346615220725274,-0.07329931636295921,7.77
-0.14326010601247843,0.009880007311205407,7.775
-0.13212063654415535,0.059326180711032635,7.78
-0.11889206071133761,0.09337706809005147,7.785
-0.11412195368809014,0.11729715272884794,7.79
-0.10840338722049858,0.1156807385265125,7.795
-0.10223415178005515,0.10780022620146086,7.8
-0.0996076779872648,0.1162310205805503,7.805
-0.0946167824608575,0.11812768617220468,7.81
-0.08781670678532742,0.10730024061900006,7.815
-0.0823691497938864,0.11796101761144574,7.82
-0.07035165791577193,0.14460527189230932,7.825
-0.05343849601262704,0.14748358104374423,7.83
-0.045386489195794265,0.1304401850239941,7.835
-0.04308760534999259,0.1189972767063527,7.84
-0.03523349858747848,0.11377075075721188,7.845
-0.025156483421395395,0.11776686207612891,7.85
-0.016414228472864233,0.13615283721531776,7.855
-0.0065840768763074,0.14825270565133952,7.86
-0.0006135414608206176,0.14242813943055294,7.865
0.00027525858435550557,0.13861041007102387,7.87
0.0063032809017640684,0.1457849684522898,7.875
0.01828843627569993,0.15080236922992396,7.88
0.024987656640789023,0.14743816277439126,7.885
0.022525871830309137,0.14048719657456926,7.89
0.015736692827307372,0.13747630009258946,7.895
0.009880007311205372,0.13832010235687578,7.9
0.009021485113336496,0.1291218243745363,7.905
0.00964581992296086,0.11085565784000048,7.91
0.001686171606033716,0.10381804962712217,7.915
-0.011646784341737134,0.09906913391928863,7.92
-0.013698455726965188,0.07486323733016348,7.925
-0.005916565044626768,0.05486058966207796,7.93
-0.007607090500439042,0.05967384332731329,7.935
-0.015815231384170812,0.056638840020759494,7.94
-0.012741682784847465,0.03500371755130567,7.945
-0.008112828556241935,0.02886212533212498,7.95
-0.015376583994026406,0.034627794090099945,7.955
-0.01793207885551895,0.02764963729339325,7.96
-0.012491288645373279,0.026984178351917777,7.965
-0.019014016811901104,0.039171850984202825,7.97
-0.02566974088987023,0.03004523876290278,7.975
-0.01422973875304058,0.008478808016873996,7.98
-0.008593082243712136,0.015550122343905537,7.985
-0.018258174419324365,0.03514264098071175,7.99
-0.01842463511643012,0.03172569509320992,7.995
-0.01401021630234458,0.023264043599475773,8.0
-0.017869695927825814,0.03450450628429697,8.005
-0.013724762176247891,0.05097662898112998,8.01
-0.010295619997981455,0.05772969979099448,8.015
-0.022075655671916827,0.06243087132854534,8.02
-0.014820010966808095,0.0741000548340406,8.025
0.012014738368381786,0.0906525403699943,8.03
0.008135622603326394,0.10344350182878698,8.035
-0.009583121617911057,0.1084484610955694,8.04
-0.0002428253826919152,0.10906246566678214,8.045
0.00269363991538133,0.1088234082936538,8.05
-0.010063033113648846,0.11510865886245167,8.055
0.002505915697941174,0.1309219004232061,8.06
0.014405888092775885,0.1382915825601735,8.065
-0.0020436314530706025,0.13521350327653572,8.07
0.004101340241479423,0.15309410386885872,8.075
0.030545773721200892,0.17841290671815901,8.08
0.021373295241003204,0.15677165760860354,8.085
0.004467208759729165,0.11694154684482652,8.09
0.009759802557364942,0.1309390966639227,8.095
-0.0022213956074592736,0.16150463931790507,8.1
-0.016797917555207643,0.1386693998326684,8.105
-0.0021438467857493033,0.10519618447114025,8.11
-0.009451023779303075,0.11266405491573332,8.115
-0.04005991110918662,0.11572188692087211,8.12
-0.028809410090359956,0.08712077387648176,8.125
-0.011874421218471532,0.07407357723340473,8.13
-0.03865970837346571,0.09139203892179368,8.135
-0.048248617577086136,0.09684886839409244,8.14
-0.030043922894934447,0.07291717508538852,8.145
-0.04446003290042429,0.04940003655602703,8.15
-0.06096159133251779,0.05367561024227327,8.155
-0.048127258785545766,0.07104118192751083,8.16
-0.060378539611780274,0.07063913275706506,8.165
-0.08194086859889847,0.057815870552679186,8.17
-0.058712127545114866,0.05464092840867262,8.175
-0.04794028670423263,0.058161510571200704,8.18
-0.08233909317048871,0.06485895626954037,8.185
-0.0920461203818832,0.07573754602226662,8.19
-0.07795821605696679,0.07360485939280298,8.195
-0.08771311402471324,0.06446939310902072,8.2
-0.0880099017902324,0.07518663391080724,8.205
-0.0738360790031811,0.0838996612040221,8.21
-0.09263649305975755,0.07396988110693498,8.215
-0.10479286115884656,0.09139610909087266,8.22
-0.07044488238356496,0.12865973962921015,8.225
-0.05458789312759347,0.11706783657683627,8.23
-0.07260099510028302,0.08161028328154755,8.235
-0.06449460401332163,0.08635996142739374,8.24
-0.04773735059744509,0.10016306833315451,8.245
-0.057089034139761685,0.09994917839907948,8.25
-0.052919695501608736,0.12232362448121564,8.255
-0.03300461595087156,0.143988144468895,8.26
-0.03631343912577097,0.13449162703988424,8.265
-0.03533899681690757,0.14405583602313538,8.27
-0.009880007311205427,0.17290012794609472,8.275
-0.005229556895213388,0.15799411749220904,8.28
-0.020902145706290988,0.1304009613087963,8.285
-0.016475113891389406,0.14906018711717378,8.29
-0.008859838590445524,0.16927625089962517,8.295
-0.018607371248080644,0.14841758638600108,8.3
-0.024404384764800207,0.11879437221155277,8.305
-0.02872684273728367,0.1038527126750198,8.31
-0.04163273383803167,0.10551893523251031,8.315
-0.03987212321199379,0.1205134219276049,8.32
-0.027840681339852385,0.11898203935852913,8.325
-0.035597787269829886,0.09767371518493624,8.33
-0.04871335467050905,0.0942187969867334,8.335
-0.048273298475549384,0.10013878313994429,8.34
-0.053588527092558944,0.0852375401087194,8.345
-0.06419649114784766,0.07400522336112515,8.35
-0.06239676968321791,0.08350079885199592,8.355
-0.06270097947277337,0.0855675057667516,8.36
-0.07104939453551885,0.0749684857828131,8.365
-0.06657001635300233,0.06791486347880611,8.37
-0.05837890747264436,0.06447971324376885,8.375
-0.06649265030517626,0.06602359151035254,8.38
-0.07430362065867196,0.06914167900534164,8.385
-0.07059600099835532,0.06478896378809894,8.39
-0.06913008626786017,0.0687699410723555,8.395
-0.06916005117843786,0.08398006214524602,8.4
-0.06741660392537631,0.08126593272045254,8.405
-0.07131041905587546,0.07273128968635562,8.41
-0.06652688257106995,0.09440920092775199,8.415
-0.0397474999506085,0.12766347797591476,8.42
-0.012784682337268555,0.14947509411875082,8.425
0.004652352679368197,0.1697030684789105,8.43
0.031125609863457245,0.1676181460977736,8.435
0.06567795792639779,0.12293333835422084,8.44
0.09947413833763445,0.06657752930701102,8.445
0.1390924226566497,-0.003386493546956604,8.45
0.16886181450897664,-0.12198525561307057,8.455
0.16050758601122195,-0.23338837858918657,8.46
0.12130703436189075,-0.2383707913038073,8.465
0.06798391416959215,-0.1454040287183674,8.47
0.004672641857295769,-0.03699619057292785,8.475
-0.04382125949526924,0.050510679135390577,8.48
-0.05515221392042533,0.12564976480615153,8.485
-0.048817796185719305,0.18182103369895883,8.49
-0.04257425722953219,0.1972267937761517,8.495
-0.029565411389533405,0.17928702647646488,8.5
-0.016898935499489218,0.16463294817592738,8.505
-0.014847672887224508,0.16274037442199,8.51
-0.012398127876789752,0.15398116170715176,8.515
-0.007636304539254693,0.14319980045543712,8.52
-0.009880007311205414,0.1432601060124784,8.525
-0.013462580620083662,0.1379269676901042,8.53
-0.017119307647018037,0.12002851877597528,8.535
-0.028146503394451055,0.10510228455228568,8.54
-0.035525592798733824,0.09595652516605435,8.545
-0.03427786745495512,0.09538323987161902,8.55
-0.04131639744228321,0.10986219243394788,8.555
-0.05043227503610742,0.11665328953231913,8.56
-0.04176928142745489,0.09966676782835374,8.565
-0.03263750247187971,0.08489387637252692,8.57
-0.043044169652318436,0.08513832867721084,8.575
-0.054679936047335176,0.08368420541561628,8.58
-0.05475371212695925,0.0776858680244625,8.585
-0.05532239739461996,0.0693667020628739,8.59
-0.05907736613285745,0.05955015193722024,8.595
-0.06204462817828783,0.06604338544292863,8.6
-0.06513474835913652,0.08611333595996441,8.605
-0.06123948457915137,0.09021191884150788,8.61
-0.04947844913632428,0.08444544669212448,8.615
-0.04417650293760046,0.09173116446649895,8.62
-0.04507975150559822,0.09896088528981423,8.625
-0.04073093406831769,0.09719696417013789,8.63
-0.0337407502626403,0.099305249952358,8.635
-0.025273772052147522,0.10043018036448308,8.64
-0.012213988912033522,0.09705819001406663,8.645
-0.004940003655602709,0.09880007311205408,8.65
-0.002125167199345868,0.0951966454920084,8.655
0.013758449244170778,0.08585228825518249,8.66
0.03311522354109411,0.09615065545896136,8.665
0.039545783154652105,0.1140365768304877,8.67
0.04860992098207629,0.11064583760163824,8.675
0.06274755793278373,0.10657837446736224,8.68
0.06204586935200894,0.11866630788613217,8.685
0.06016875825084148,0.12302598992749182,8.69
0.07165732238144303,0.11828349121958724,8.695
0.0707545763159836,0.12214103119854196,8.7
0.05895209390988247,0.12878259743681933,8.705
0.0667686552891451,0.1349742457836198,8.71
0.07705165519957394,0.13900737960028786,8.715
0.06964973736468323,0.12488719988818178,8.72
0.06986180611247299,0.10757849264420984,8.725
0.07355881056703416,0.11231854147459727,8.73
0.057636962507871675,0.11186600264244105,8.735
0.04963227858325545,0.0904205664665912,8.74
0.053997183145673665,0.08571760566106323,8.745
0.030618162726360556,0.0979525525667035,8.75
0.00560704999552742,0.09376417597427136,8.755
0.01696325273497388,0.08943571808730899,8.76
0.014166189053435502,0.0985797527275661,8.765
-0.019060636813664652,0.09230250694938175,8.77
-0.02470001827801351,0.07904005848964323,8.775
-0.01841382749826217,0.08384725445334759,8.78
-0.042615155175948306,0.077558976910845,8.785
-0.05520300041588729,0.055457612388183024,8.79
-0.0481753017071948,0.06812639727406364,8.795
-0.06811227076384013,0.10243007249971842,8.8
-0.07906938683391913,0.09651370044787101,8.805
-0.051829919175957175,0.06865097536919768,8.81
-0.05400748028815858,0.07247461624425347,8.815
-0.08306632623698135,0.09142223719817683,8.82
-0.0704874804776935,0.09135722771200026,8.825
-0.054696355754987706,0.08368525784975919,8.83
-0.07714178637075647,0.08285916605900438,8.835
-0.0798291018378621,0.08614768792959497,8.84
-0.06426962671673914,0.09770400580992342,8.845
-0.07696376714737259,0.11656827061815496,8.85
-0.07014790940761122,0.12334648911760362,8.855
-0.029367127094303544,0.10783875221230216,8.86
-0.029572796669361457,0.09076678750797632,8.865
-0.0520834091535646,0.09811262403142809,8.87
-0.033378469178428,0.11665175469179169,8.875
-0.017931463071820832,0.11326226754038021,8.88
-0.030933755666543064,0.10390501149561993,8.885
-0.022885620527532333,0.12298991018683779,8.89
-0.011718986824669405,0.13651612939961127,8.895
-0.02470001827801347,0.11362008407886223,8.9
-0.01303677404529158,0.11830255559294764,8.905
0.013499220733636635,0.17347627678304361,8.91
-0.0012931582577092213,0.18276992076036527,8.915
-0.018824184828756602,0.1321082142106487,8.92
-0.0044754989445986975,0.13366103920046069,8.925
-0.0056288121377126785,0.18599366899866931,8.93
-0.018347175597923496,0.18123219975805313,8.935
-0.00694169668856581,0.13683931805278993,8.94
-0.007169423786615973,0.13567172486642826,8.945
-0.025652041206824336,0.1495752063371002,8.95
-0.013106254620797259,0.13169322885855458,8.955
0.007613495328089499,0.1095195848532518,8.96
-0.003585050771520633,0.09952122822369236,8.965
-0.010327539050872971,0.09392220043823618,8.97
-0.0014920038332364896,0.0963348007339112,8.975
-0.010696955156513558,0.08750852391980025,8.98
-0.020344068315799144,0.062228417808081186,8.985
-0.014652452096393943,0.06289644356219903,8.99
-0.024102957126210262,0.08239642194177961,8.995
-0.03649207542360279,0.07453108158066454,9.0
-0.02281109975484627,0.06603958660100111,9.005
-0.015560607711792056,0.08044921546505066,9.01
-0.030484226738059277,0.0665184202705289,9.015
-0.03376221557450482,0.03222863441744685,9.02
-0.0296400219336162,0.04446003290042427,9.025
-0.03738835378918831,0.07669989869385807,9.03
-0.03760897232578708,0.07401960476664624,9.035
-0.0337850881775893,0.06810152662857502,9.04
-0.04765372264679436,0.0822623106841914,9.045
-0.05265248982430756,0.08988298021016299,9.05
-0.0337129420770326,0.09263666035333751,9.055
-0.027440008960700334,0.0942420541265738,9.06
-0.035351863627316606,0.0809544576460054,9.065
-0.026267513431558635,0.07555512070189604,9.07
-0.011395205389085266,0.08343900466637828,9.075
-0.004409718146703352,0.06759302905315354,9.08
0.010644318334102856,0.061296635752456176,9.085
0.02602148497421321,0.12132776060290282,9.09
0.03372250546859986,0.1858219241623532,9.095
0.06129920807611511,0.18428171124933956,9.1
0.10409842714844478,0.1606120476848781,9.105
0.12968042651934036,0.1441504634021293,9.11
0.1571911581839419,0.09162746800948529,9.115
0.20455740491611835,-0.008510636845200882,9.12
0.22944918255157204,-0.13371333415002376,9.125
0.20839955034157107,-0.24099257622927686,9.13
0.154465145002386,-0.23851689562646283,9.135
0.06696547033584575,-0.11618209962098022,9.14
-0.019306420358568836,-0.007637727109127735,9.145
-0.04446003290042435,0.03952002924482164,9.15
-0.0336653972657426,0.11541705052483019,9.155
-0.03815392596677769,0.19316962843716562,9.16
-0.03238274826938141,0.15946129676490178,9.165
-0.010204062505717367,0.07237215144480227,9.17
-0.014338933727396,0.06001530313333872,9.175
-0.022556306083620744,0.09401215315136385,9.18
-0.005717589003513739,0.09874377659951597,9.185
-0.008281191077787466,0.08701172699561714,9.19
-0.026590299540078743,0.07830572602379596,9.195
-0.009887329165186155,0.0664975668041675,9.2
0.004540810008204148,0.058982099783754814,9.205
-0.017612104791920224,0.052959194695326436,9.21
-0.021255544337216076,0.049000854833631896,9.215
-0.005166151631919644,0.06310991142147428,9.22
-0.01646696285603741,0.0682171195272968,9.225
-0.023811476688656866,0.04505691547684516,9.23
-0.013972764609767083,0.04851675506967502,9.235
-0.03378693030600237,0.07793533473841369,9.24
-0.0480837183106959,0.059509158164331354,9.245
-0.014588747856007316,0.03313933864324872,9.25
-0.004707543616406366,0.0745991825857003,9.255
-0.03835554295012172,0.10261614308858208,9.26
-0.04002845122842579,0.06154610291074449,9.265
-0.020045928269357412,0.05894800798504473,9.27
-0.024700018278013557,0.11362008407886219,9.275
-0.020479477119280623,0.11760793572771558,9.28
-0.004661786018721233,0.0900948912688175,9.285
-0.009313117499408784,0.10943748102199599,9.29
0.0028236434450976036,0.12807088179262788,9.295
0.04036688735935326,0.11417868847437758,9.3
0.04729873099783236,0.12582718384096436,9.305
0.04209420323588772,0.14726042951325305,9.31
0.0641216060975404,0.12034222079677036,9.315
0.0730768373729434,0.08779638525752034,9.32
0.06478704598044134,0.10704734614510401,9.325
0.08047545817863898,0.14499414126049975,9.33
0.09062743047615818,0.15183538971691657,9.335
0.07690343613268512,0.1325239967245099,9.34
0.08723822120117605,0.12322303661268337,9.345
0.10995772979740023,0.13436696128189388,9.35
0.10380162185786457,0.1363354145809948,9.355
0.10118721480990278,0.12447256240128628,9.36
0.11710742238999286,0.12811257251027214,9.365
0.1164506155402917,0.1319857749072824,9.37
0.11146376221663012,0.11064290338267155,9.375
0.12037780717752487,0.09832022195255417,9.38
0.11719400734422501,0.1037958225312309,9.385
0.11007980172031977,0.08641375719858548,9.39
0.12168052006624837,0.06505469025522957,9.395
0.12350009139006762,0.07410005483404053,9.4
0.10564574172560871,0.07556665659715688,9.405
0.09672848547754187,0.05513421044462185,9.41
0.09060619881452005,0.04919412823820113,9.415
0.07361679240467142,0.04428046449063903,9.42
0.06158643420686711,0.023337188227261538,9.425
0.05285479179491626,0.024281993293140534,9.43
0.03756232976325149,0.04718977233216276,9.435
0.02897203009011899,0.054172573121895926,9.44
0.026978684497712298,0.053098394691408084,9.445
0.01870687664173937,0.05562429834544048,9.45
0.009393521504635561,0.04877647542951928,9.455
0.0008936643683825373,0.04324318361571451,9.46
-0.011028456188048338,0.045779607939076136,9.465
-0.01940447466151391,0.04446317907655637,9.47
-0.025496410875578357,0.052537590442749214,9.475
-0.030604765098288456,0.06951427721649898,9.48
-0.022427701094746785,0.06658643511167521,9.485
-0.011865903341603914,0.05845790012795111,9.49
-0.016973474994467923,0.06681193113400091,9.495
-0.01817865684992166,0.06938647901393227,9.5
-0.005371018273951996,0.07714102906738624,9.505
1.6583824513268743e-05,0.11357388203411596,9.51
0.0013704909951868206,0.1287707285742407,9.515
0.010589900606963144,0.09956247252000552,9.52
0.014820010966808114,0.08892006580084864,9.525
0.019897123486713405,0.11066772090362856,9.53
0.038744044813182305,0.1196244488111319,9.535
0.04951807548942193,0.11827401387798694,9.54
0.04495340649963551,0.12115011644451804,9.545
0.0455227490027564,0.1161038845588147,9.55
0.04593438020447897,0.11256576844821603,9.555
0.03937733371279937,0.11804896473947804,9.56
0.040363165326119256,0.11824145344264796,9.565
0.04173615256881089,0.12287673472424136,9.57
0.0355440850898091,0.1383635601479741,9.575
0.040256845719879454,0.14312672426659528,9.58
0.05183789471099199,0.1413399496671541,9.585
0.05633394642278827,0.14540289233731551,9.59
0.07239457660193863,0.14348649515215228,9.595
0.10282055860955729,0.14726709363939078,9.6
0.12619722158536015,0.16322510436954699,9.605
0.148245654523972,0.15025195159523125,9.61
0.173604889889223,0.10909454243746208,9.615
0.19225192251206294,0.075222196895522,9.62
0.22022795503465323,0.004416472288187463,9.625
0.2544146093381961,-0.13841671090523888,9.63
0.2479709729505755,-0.2624714459448906,9.635
0.19356174175749033,-0.2867736315992489,9.64
0.12081500411598996,-0.2400504952710688,9.645
0.03952002924482159,-0.16302012063488927,9.65
-0.02432738382670204,-0.07156816732229702,9.655
-0.04265946445055348,0.004977581144402519,9.66
-0.04384336299478394,0.04656438929388836,9.665
-0.047343503888484476,0.058485822502563005,9.67
-0.03301771366060125,0.06065828010594558,9.675
-0.016016954903920883,0.07757244165996259,9.68
-0.01521200616432497,0.09931765748391744,9.685
-0.007345085880609991,0.09649327976707862,9.69
0.0018545827543188056,0.08704958807109806,9.695
-0.006540176961837995,0.09704577464694243,9.7
-0.004065483157800723,0.103591874574893,9.705
0.010438696406437515,0.09784131082472833,9.71
0.003812490368210372,0.10398223962725506,9.715
-0.0007039289255597568,0.11355986160609635,9.72
0.019493813786150505,0.10616933094304479,9.725
0.03171975241816513,0.09646194798918886,9.73
0.033379641182053645,0.10132875792851208,9.735
0.04099822849250661,0.11615639182252313,9.74
0.0372227095967154,0.12343967318160262,9.745
0.034980079765525,0.10959380973988239,9.75
0.052606189948161394,0.09829808933427249,9.755
0.046132743974107535,0.11710769536712455,9.76
0.014329401047850828,0.13961901449046452,9.765
0.017843806058509704,0.14586342797176813,9.77
0.03952002924482161,0.15808011697928645,9.775
0.032057147263349725,0.16348706127719465,9.78
0.023496239032581093,0.14219238661502256,9.785
0.029291745021553548,0.1325902806075568,9.79
0.02793777926945661,0.13645312021073147,9.795
0.032860230414192684,0.10430030815311722,9.8
0.04094787805021876,0.06619951767508246,9.805
0.028341860999259352,0.0758399935019707,9.81
0.02729283493958136,0.08828852619327236,9.815
0.05267702654335414,0.06445719119320704,9.82
0.06039763874939068,0.045905629381457536,9.825
0.054314031120642814,0.04979203959469765,9.83
0.05960389450927892,0.05151820984695965,9.835
0.05425745891537078,0.04578831567866449,9.84
0.048838166910121654,0.030929756500049848,9.845
0.06593655948951861,0.01186046958848958,9.85
0.0634229278709836,0.013907678130853718,9.855
0.04068942210606311,0.028866887147651787,9.86
0.05217715966154493,0.01878754125348449,9.865
0.07078086260446145,-0.012518074409140437,9.87
0.05815594938358286,-0.021771637175709745,9.875
0.05665796702517819,0.01543654024573424,9.88
0.06995046674937909,0.06331971315416375,9.885
0.06299321613172801,0.05807305780038696,9.89
0.060899393451489675,0.017310210576526007,9.895
0.06916005117843786,0.01976001462241083,9.9
0.058011217608251744,0.05259187912305666,9.905
0.05988888578850475,0.05926668488360399,9.91
0.08678868444649922,0.07441084602946427,9.915
0.08431587045649258,0.11357352270329535,9.92
0.06537757008400136,0.11181955336223644,9.925
0.07181601027257442,0.08512212818793691,9.93
0.07132762069069574,0.09534057112289743,9.935
0.05779128574290992,0.10189370651919408,9.94
0.06259889292918536,0.08320033869788625,9.945
0.05790630612535634,0.1032306752026619,9.95
0.03894241770427489,0.1448808884141422,9.955
0.04948750921880542,0.1449791391693207,9.96
0.061107554205072655,0.13799864521072724,9.965
0.04087894185046284,0.15245786667846736,9.97
0.033430488715536,0.15051676872309414,9.975
0.04103341541388619,0.14231061344752394,9.98
0.03141121791116384,0.15189511698612826,9.985
0.0329140980305265,0.1464553450155329,9.99
0.04620269458492283,0.12299955634439644,9.995
0.037308659681223336,0.11122120677728546,10.0
0.04161393959847175,0.09978733350417861,10.005
0.07247180521113783,0.08868878859678306,10.01
0.07770803521104176,0.10339009369444822,10.015
0.07708069278848237,0.12097035332854077,10.02
0.1086800804232595,0.1086800804232595,10.025
0.12969494212002963,0.07907293097526032,10.03
0.14119016144719995,0.04047743217945338,10.035
0.1861333484411981,-0.023733114046298402,10.04
0.22249521578328538,-0.13256544262419873,10.045
0.2189690572144367,-0.27803324324467404,10.05
0.20499929639970488,-0.3758460054723261,10.055
0.15090011595199093,-0.34316231128390673,10.06
0.0436272019974587,-0.2370635497178158,10.065
-0.03241521882956162,-0.15167632396355138,10.07
-0.05660135562661555,-0.0703322139843411,10.075
-0.08057847128285409,0.01954226523133632,10.08
-0.09036528231838586,0.05967252773787322,10.085
-0.07671745718128775,0.05677062213991307,10.09
-0.07408557461104326,0.06790381457583554,10.095
-0.06278605049170218,0.08312808911264932,10.1
-0.03581712420861528,0.08377433157056473,10.105
-0.04060537826723258,0.09151199788499045,10.11
-0.05166398801168126,0.09915156362394029,10.115
-0.026910416576088628,0.0915701846739528,10.12
-0.01574445776493322,0.09372326136436147,10.125
-0.027866086551062413,0.1116298879115735,10.13
-0.011177980215725646,0.11834401369915475,10.135
0.01007278286448988,0.11151583940694564,10.14
0.006478928555747614,0.10688658590890787,10.145
0.01482001096680809,0.1086800804232595,10.15
0.025672478390118773,0.11484924607655252,10.155
0.012848954253711058,0.12130649086085421,10.16
0.01302671322005745,0.13136967522641763,10.165
0.023801471806438056,0.1511197451447666,10.17
0.00757981024395171,0.16588585686934892,10.175
-0.0027182376886186166,0.1673528775932934,10.18
0.012530897950338522,0.17452432565097648,10.185
0.013200490109518534,0.18309733883481027,10.19
0.007233769297695866,0.1705343226960202,10.195
0.01655424861370652,0.15457913581235533,10.2
0.014141292143992066,0.15306558020703565,10.205
0.008387409761879393,0.14122114799543817,10.21
0.02465317944211805,0.11640603053477558,10.215
0.03024907522704106,0.10850297783553514,10.22
0.018121031467813988,0.11059778042119643,10.225
0.02527207272129585,0.09602630492257129,10.23
0.038865793431094184,0.07269477116347485,10.235
0.03805618647026736,0.05888297555022618,10.24
0.04099026474632701,0.053170110079987946,10.245
0.0419965171852829,0.0471871950419768,10.25
0.03424632641159923,0.03727502074699076,10.255
0.04126177005524103,0.029081868045422055,10.26
0.048953133436345345,0.031090269384677766,10.265
0.03470848694768396,0.03933308070969838,10.27
0.02964002193361624,0.04446003290042429,10.275
0.04229366905844972,0.043211372550498194,10.28
0.04208374978345546,0.03575850473968718,10.285
0.03499459168100164,0.02975751420073446,10.29
0.03158505419368236,0.03229702228010059,10.295
0.020962950430748247,0.03462173472996466,10.3
0.017937914847972136,0.03368131008709308,10.305
0.023986016902441953,0.04231057054542919,10.31
0.010960329759939805,0.0565033755894734,10.315
-0.0023624443750428566,0.06016756381385278,10.32
0.009554307090588464,0.05858780251024455,10.325
0.014373063198973161,0.06490643940966417,10.33
0.002483167231793786,0.07979977427468576,10.335
0.0009262325025596589,0.0976768360399619,10.34
0.00037704221250543747,0.10839972041112192,10.345
-0.004366726656855667,0.11050959460644502,10.35
0.004605273066072539,0.11692835616336895,10.355
0.007108214393965755,0.12362019322460047,10.36
-0.006484950983396001,0.1189850796969139,10.365
-0.0009639864952057756,0.12096681910851154,10.37
0.014682985250933598,0.13865295331965602,10.375
0.006562475333819478,0.14654399961820952,10.38
-0.005687713505459551,0.1431448146041478,10.385
-0.007634829791412301,0.14961866041029948,10.39
-0.01421331295461943,0.15245122385717122,10.395
-0.014820010966808001,0.13338009870127301,10.4
-0.010312518491891869,0.1120256014890785,10.405
-0.020754997589119865,0.11147491380977183,10.41
-0.021767768515501777,0.13056571181914137,10.415
-0.0005868151051548107,0.14592550383249545,10.42
0.0024752357802832665,0.12923855159899833,10.425
-0.009657217982600002,0.09172393322352619,10.43
-0.0022398735696066243,0.07002472220149615,10.435
0.004633329869427477,0.06298998844944825,10.44
-0.003856600155723604,0.057726061114741024,10.445
-8.30573315604676e-05,0.06886149282737178,10.45
0.01581557604565244,0.08988270338929807,10.455
0.034374457423908,0.09156872674193764,10.46
0.06841654444651327,0.0732684305148035,10.465
0.10230604717892747,0.0463281154883739,10.47
0.11788877030373586,0.014907886982782732,10.475
0.1375464295798959,-0.03174447768698194,10.48
0.16099671496620976,-0.13976839378914654,10.485
0.15750958086076244,-0.28941921694284134,10.49
0.12161131459572082,-0.3363095584765217,10.495
0.05293786433402845,-0.23904513698824928,10.5
-0.040539007987715335,-0.1472032002854359,10.505
-0.10946967978017652,-0.11428460402414115,10.51
-0.13064676380825502,-0.04678915299934634,10.515
-0.136867193778515,0.040512537154879874,10.52
-0.13832010235687575,0.07410005483404056,10.525
-0.12393576745486617,0.09036880641694121,10.53
-0.10693522946814311,0.10926148432255632,10.535
-0.09515505696969132,0.09241098158173709,10.54
-0.08783826953815006,0.07856550336511087,10.545
-0.0900915082124508,0.1031205968232238,10.55
-0.08401221525767792,0.11516316776896465,10.555
-0.06167140016001418,0.11005246483345416,10.56
-0.05523576750429051,0.12114645220152756,10.565
-0.06409159504052224,0.12253301419783393,10.57
-0.05995389236993816,0.11708490020114254,10.575
-0.059873076051069465,0.14011959582484673,10.58
-0.07263789900634231,0.15001825435643595,10.585
-0.07084916919729485,0.12448742917277726,10.59
-0.06857716455610618,0.12673172623881881,10.595
-0.08267979827956537,0.15700599034306548,10.6
-0.07886237667774879,0.16064889807954286,10.605
-0.06056619179051398,0.15314799662238102,10.61
-0.06399626043001805,0.1530684480216339,10.615
-0.0682494936760477,0.13819200119956176,10.62
-0.05663160915553455,0.12417876125001864,10.625
-0.05480914293419159,0.1218365714127724,10.63
-0.05322946918908611,0.09969553740942645,10.635
-0.04075610662284117,0.07217301894144854,10.64
-0.044096485569872314,0.07216054854265694,10.645
-0.04940003655602713,0.07410005483404061,10.65
-0.03420484198572732,0.0630684173945558,10.655
-0.03256699975190006,0.05780424770200377,10.66
-0.04432961906332791,0.047025463444364736,10.665
-0.03519097251221017,0.024444208476782907,10.67
-0.031428643170731976,0.013074956026408052,10.675
-0.04402067797360834,0.010721859663014591,10.68
-0.035744590439793854,0.008809233494906553,10.685
-0.03154526175532258,0.01700076349041192,10.69
-0.05244420684510075,0.024891365830769927,10.695
-0.04076216005161252,0.022050338217791086,10.7
-0.008984967016042364,0.013982748271469737,10.705
-0.024542037193501214,-0.010148005388173563,10.71
-0.04461733334074851,-0.031125227665789,10.715
-0.025929062104507697,-0.003001162627536981,10.72
-0.023927669602827745,0.03389005796542036,10.725
-0.0372381384256624,0.019441086855520078,10.73
-0.022949242753443233,0.0066263473823913385,10.735
-0.01919315905302213,0.03571864104398238,10.74
-0.030148640670560105,0.04890347995477048,10.745
-0.005402785941448377,0.041718328991351965,10.75
0.012351410151036083,0.06076711265265331,10.755
-0.013342637307742,0.07994304101088574,10.76
-0.01542346420359535,0.08008353678368081,10.765
0.003078451882234981,0.09420167466809484,10.77
-0.019760014622410838,0.09880007311205403,10.775
-0.038650114254799445,0.0705514033678958,10.78
-0.02119954014364976,0.07325856247914325,10.785
-0.03076413846559218,0.11896116052720915,10.79
-0.053985979123659565,0.12730125908701717,10.795
-0.03555178055399473,0.0930095521965406,10.8
-0.02498319029071697,0.08766844687888885,10.805
-0.049457733286649964,0.12017701483747753,10.81
-0.05216068852437894,0.14626597678415662,10.815
-0.04178195190360616,0.14758578960207114,10.82
-0.05370925243173045,0.1332902289083029,10.825
-0.053533824132114265,0.11776388751611143,10.83
-0.04329897098135882,0.1094867566996603,10.835
-0.06157338255831812,0.11030653931822244,10.84
-0.07011338352975746,0.11815469418911971,10.845
-0.04382265097014928,0.1160542159188145,10.85
-0.03669487711919068,0.0945951841478597,10.855
-0.052769766537442475,0.07964462960817044,10.86
-0.0532964319434228,0.07629698895903375,10.865
-0.0572231710555012,0.04990487717445118,10.87
-0.06975343639656618,0.016712577009482112,10.875
-0.059346072065049334,0.02919794970050152,10.88
-0.056161390442551286,0.06194792047446899,10.885
-0.08555699982731083,0.05663938464491973,10.89
-0.08942071687666714,0.030262435159702703,10.895
-0.05928004386723247,0.02470001827801344,10.9
-0.06246454469759371,0.036949666083033406,10.905
-0.08881881525923854,0.04832072046212378,10.91
-0.08568893423355421,0.042173960975487645,10.915
-0.08113149610288929,0.013897943250278407,10.92
-0.10047030935185677,0.00044459856106527696,10.925
-0.10593186504304981,0.03268114134635245,10.93
-0.09942941773220057,0.07192262817218095,10.935
-0.11185318696064352,0.07094988714849426,10.94
-0.11555532610769922,0.0513426245751753,10.945
-0.09400247282835525,0.05648616643266285,10.95
-0.08960180581026395,0.08039997925497117,10.955
-0.10381891528129779,0.0909145996385637,10.96
-0.09664862566492423,0.08572783395837065,10.965
-0.07961686015008952,0.08816540976059668,10.97
-0.07668448065665694,0.10632508321625612,10.975
-0.07015344430911025,0.12334905022214832,10.98
-0.05975226772997349,0.12115240950286255,10.985
-0.06180162235814433,0.10592993125953117,10.99
-0.05550482268390234,0.10660157937492311,10.995
-0.03388953328326646,0.1281549905220883,11.0
-0.030134969024280315,0.13389662992960918,11.005
-0.0402022897407461,0.11653932058287653,11.01
-0.03437959955467256,0.11646188654654342,11.015
-0.027661464274270985,0.12981622015842853,11.02
-0.03458002558921896,0.11856008773446494,11.025
-0.033822965948360206,0.11189464113411182,11.03
-0.028365759555819586,0.14814229115794522,11.035
-0.033969275414619166,0.17779540106808497,11.04
-0.029365326989853686,0.15756226301528461,11.045
-0.008378020649547093,0.12464033344559776,11.05
-0.0027450332864452248,0.10716477715024236,11.055
-0.013022007078528667,0.09314501784526308,11.06
-0.014092706838809255,0.08250674319322575,11.065
-0.01003737749100981,0.0743630961851912,11.07
-0.01041523456540626,0.05742148986209128,11.075
-0.009837173851731306,0.038543478786004684,11.08
-0.012158680596830812,0.02735641339958865,11.085
-0.01576215883256003,0.024900245409762368,11.09
-0.005980861795379797,0.038124117671903414,11.095
0.009836905197558338,0.0649979782446616,11.1
0.01628586515775034,0.09539704584547624,11.105
0.022557985016038132,0.11779969628105541,11.11
0.03649480102393287,0.09960098676149891,11.115
0.054499904998278476,0.03757018496593015,11.12
0.08286134247039142,-0.015772560335080444,11.125
0.11615018190765665,-0.07429915396370408,11.13
0.12819649769368202,-0.20151727571866695,11.135
0.10998982826501633,-0.3220467239153446,11.14
0.06507306599747369,-0.31543721480784864,11.145
-0.009880007311205374,-0.2371201754689298,11.15
-0.09356589139668767,-0.17518713784114973,11.155
-0.1462472377454601,-0.08976394633323487,11.16
-0.1625879541376631,0.01899101970283681,11.165
-0.1591261692592309,0.06887084678024438,11.17
-0.14182519957633677,0.06813030225640236,11.175
-0.1253338595362478,0.07875379525757752,11.18
-0.12147056608614792,0.09942655435483684,11.185
-0.10978972338855673,0.11667022005661838,11.19
-0.0824358249874674,0.12607018013897991,11.195
-0.06781656151611258,0.11151130454098415,11.2
-0.06916038396830856,0.09339173857841689,11.205
-0.06123714500970201,0.09850237979804544,11.21
-0.04965620219792789,0.10683689130453355,11.215
-0.0493221446177099,0.11295013982345363,11.22
-0.04567966233648711,0.12281119013849016,11.225
-0.03722443683451033,0.11118311608497632,11.23
-0.0425101609803062,0.10062227478875962,11.235
-0.046884049262628714,0.13357170373531382,11.24
-0.028483436506633753,0.15168752360542634,11.245
-0.010649262471656144,0.11734090340552732,11.25
-0.014398152033976114,0.11212004945726892,11.255
-0.019796667975905166,0.14649552789937945,11.26
-0.016108512236541778,0.13857622597279862,11.265
-0.01420065940388413,0.11047407187882322,11.27
-0.0098800073112054,0.11856008773446483,11.275
-0.0011901967112101157,0.1202735947151814,11.28
-0.0013944866348011703,0.10074364797412183,11.285
-0.0012069933123106211,0.10252257641111691,11.29
0.01485415855278959,0.10073346488567135,11.295
0.02574413147379182,0.06719483661831556,11.3
0.01720932679622129,0.04518419869135946,11.305
0.013761578104057485,0.04531715326874634,11.31
0.02066979418744071,0.03727830818768929,11.315
0.01512383062002492,0.02967942686656768,11.32
0.002559689462625693,0.02910764146380304,11.325
2.9082917383156298e-05,0.01889982473942746,11.33
-0.002088383802621611,0.009700731272265803,11.335
-0.006445761744448199,0.011093897263773045,11.34
-0.0005887660952202696,0.010004005679318702,11.345
0.004460593805932631,0.012841151909463267,11.35
-0.004250144785055427,0.023141383545236646,11.355
-0.01026826416902025,0.01808047731731609,11.36
-0.005708509596390767,-0.0010645351785429844,11.365
-0.006007348168541109,-0.010912523673877485,11.37
-0.013002395688241391,-0.007890405095273084,11.375
-0.01746819389058117,0.004887929567269931,11.38
-0.019992104655770268,0.02143092431667137,11.385
-0.01830433589252967,0.026013170382946104,11.39
-0.008785285180696824,0.024419382641884885,11.395
1.1842378929335004e-17,0.034580025589219,11.4
0.003484352484563316,0.050747327957035245,11.405
0.0058974169782059355,0.06630657563960571,11.41
0.005285787259530081,0.08251811581001638,11.415
0.003344918351909151,0.08592357660669014,11.42
0.005942460411195327,0.07568275878933736,11.425
0.0029146310095137236,0.07283233346648299,11.43
-0.010574207576511162,0.0799769687402204,11.435
-0.013880042481414879,0.09174841361545526,11.44
-0.0027794978187242855,0.11162725927960722,11.445
-0.0009139642322984174,0.12425670229688487,11.45
-0.010428369878276705,0.11793604150793378,11.455
-0.014521549549515567,0.11263922729351551,11.46
-0.01590218027964617,0.11455945350416802,11.465
-0.019630191592916207,0.11356703412369795,11.47
-0.019270631431037806,0.12182574986414164,11.475
-0.022119873639299608,0.1395348261708274,11.48
-0.03316460971023909,0.1440446605049782,11.485
-0.03216608827005556,0.13890222837303554,11.49
-0.015517281716983244,0.1297932353677006,11.495
-0.008697705397785879,0.1031915354974691,11.5
-0.012918513482020777,0.08280601801230514,11.505
-0.00888903237226647,0.09653766384267273,11.51
-0.003692752311596326,0.1036147946881774,11.515
-0.008296573947648454,0.07487450710837895,11.52
-0.009880007311205377,0.05434004021162969,11.525
-0.007470328263832855,0.0596362499172553,11.53
-0.013337976394929818,0.05370737926688486,11.535
-0.01566624885359845,0.03590456893421237,11.54
-0.004711787463788844,0.034832879015735084,11.545
-0.0005620926582440584,0.039794764017798905,11.55
-0.008374829506010355,0.02878359340394537,11.555
-0.011390861815568337,0.01673067152855868,11.56
-0.01686386583916181,0.021406483382434057,11.565
-0.03159166743884618,0.021797927393709192,11.57
-0.03246003004627759,-0.0038012094220564127,11.575
-0.0247356502670319,-0.02491406474785123,11.58
-0.04128675578250342,-0.004325491639151999,11.585
-0.06160793622644007,0.029736331113114838,11.59
-0.050643333078087334,0.03070444991678212,11.595
-0.040495483254623696,0.010732890286324785,11.6
-0.057036503624253956,0.006063543765945457,11.605
-0.0651750258173084,0.021091740795349145,11.61
-0.06066666958144935,0.03727045294048826,11.615
-0.07399593370772511,0.038372975214467926,11.62
-0.08534403512762109,0.03603608305537264,11.625
-0.07909931022492397,0.05539389747210496,11.63
-0.09210164021495103,0.07496305906914306,11.635
-0.11249983197561657,0.06656199220599046,11.64
-0.0914911592402744,0.07417943823278143,11.645
-0.0642200475228352,0.11856008773446483,11.65
-0.07639717063472184,0.12847687832096472,11.655
-0.08104580323276461,0.09179816187960207,11.66
-0.0527977557891788,0.08603804622229397,11.665
-0.038878584286722195,0.11570380491945381,11.67
-0.03737542132029022,0.14185045187009063,11.675
-0.012697557405632649,0.1877403500905214,11.68
0.011381131483370688,0.23475470146998237,11.685
0.022790880841563763,0.2127807365426556,11.69
0.061386341432404054,0.15696787671807236,11.695
0.12115984316409784,0.12362593142162873,11.7
0.15969460819147352,0.041291208911397335,11.705
0.17842193153768143,-0.11889124311826654,11.71
0.17942099878818218,-0.223682498711803,11.715
0.13743916622296298,-0.18835232587831618,11.72
0.06560959486404426,-0.08854760018212635,11.725
0.004418781313447,-0.008612919700228296,11.73
-0.03467989414081733,0.045495040425344635,11.735
-0.04868351607566691,0.08880807249932915,11.74
-0.033989484232491596,0.11083661044352115,11.745
-0.013313283522091695,0.0942835656843327,11.75
-0.007870127696809209,0.065837587289946,11.755
-0.010121133915403296,0.07182683589520363,11.76
-0.010421255634101586,0.08888192908175316,11.765
-0.008977718227327505,0.06511789704728238,11.77
-0.009880007311205419,0.029640021933616312,11.775
-0.01903942152475281,0.032582971442405025,11.78
-0.026139950500994408,0.05183017515665158,11.785
-0.01662867629605028,0.05500249681850542,11.79
-0.00696565780766429,0.045713807140433924,11.795
-0.012478010267383176,0.029169810658876413,11.8
-0.01560465651835259,0.022353768427271267,11.805
-0.01354215335668178,0.03629379674876196,11.81
-0.02186625553190696,0.02990681114454645,11.815
-0.02676644591636872,-0.007380071740658788,11.82
-0.0212032099921615,-0.00527218025887774,11.825
-0.0307908505587263,0.047708521957624074,11.83
-0.044162923738582174,0.06952971236133201,11.835
-0.02765145125515785,0.045321923767026165,11.84
-0.00986743030532375,0.03872709265118851,11.845
-0.024322436002488866,0.0558015381996449,11.85
-0.03530192706582299,0.05657735643249004,11.855
-0.022117656514384777,0.04190410197717057,11.86
-0.018468289670204436,0.03475024900376122,11.865
-0.02578956916622715,0.04293151447454266,11.87
-0.021314277427381116,0.060219624581653926,11.875
-0.022811108439321603,0.06547330487435397,11.88
-0.03555840157858666,0.05264436796475766,11.885
-0.025839766233362624,0.051624526061264046,11.89
-0.004036958645161377,0.07129836819781656,11.895
-0.009880007311205424,0.07904005848964324,11.9
-0.023350609129593768,0.07016526170509979,11.905
-0.012920425930007197,0.0718638988742308,11.91
-0.004434411985685698,0.07520132855145323,11.915
-0.012980530775893033,0.05597816429942037,11.92
-0.013253832384899536,0.03522237656341422,11.925
-0.008963569028376198,0.03734104120978427,11.93
-0.01475935562055292,0.042404479300694214,11.935
-0.0062262182204007345,0.03921572527994708,11.94
0.016621607977599578,0.04595296348949327,11.945
0.014044803411259832,0.04747146332421032,11.95
-0.00017697020617754886,0.017396139050958496,11.955
0.01605484579589877,-0.005564185917123854,11.96
0.03788341130444071,0.012033823225749307,11.965
0.034989645974306906,0.016253845956022347,11.97
0.03810909219671875,-0.018558872765901478,11.975
0.055198877945532784,-0.025237205212466238,11.98
0.05567500732869266,0.005941878463572642,11.985
0.05495983826716244,0.008625060779042352,11.99
0.07457996554087497,0.0018555277888241681,11.995
0.07947165644592427,0.03993687106060306,12.0
0.05845198633494798,0.06901804866250669,12.005
0.04947273895214119,0.04537286319422162,12.01
0.04969825529122701,0.03255272974744275,12.015
0.033467407551482295,0.049897573726873846,12.02
0.019760014622410806,0.04940003655602707,12.025
0.019026278178792638,0.05205249801495971,12.03
0.008488263283431715,0.08449152202316294,12.035
-0.0005685195570130106,0.09164520128345073,12.04
0.012644895944187174,0.06256146132717459,12.045
0.01842212916223775,0.056796504948387234,12.05
-0.0003191287194562585,0.07217004003998406,12.055
-0.010038559551248917,0.07466815069652037,12.06
-0.004067583241110758,0.08156646493711048,12.065
-0.009830828714369659,0.09417670070823425,12.07
-0.020639850213939825,0.08667632242021135,12.075
-0.019580567013048715,0.07928159318736112,12.08
-0.023293017304070556,0.09451997099620246,12.085
-0.03487050770822866,0.10968952062155111,12.09
-0.0305079629541299,0.1135298712483643,12.095
-0.018314669355172317,0.11304122023927886,12.1
-0.024125396900546135,0.1048265991437805,12.105
-0.03440548619724315,0.09860861603140393,12.11
-0.029425845253830327,0.101357813156286,12.115
-0.02459057889959693,0.09669358315883035,12.12
-0.02874023887253336,0.09453049704543842,12.125
-0.02934349106463268,0.11449315929166022,12.13
-0.03012373832299681,0.12876515322678372,12.135
-0.033278216687469934,0.12314676113629217,12.14
-0.01731102481938732,0.13139940660278462,12.145
0.014820010966808081,0.15314011332368374,12.15
0.0339010123927545,0.15788919315679403,12.155
0.045708657313905145,0.14749593037245973,12.16
0.07057186451558695,0.12327296505090389,12.165
0.0940838410656834,0.07573371099721288,12.17
0.10823225877359421,0.013557959833992494,12.175
0.12843276046621002,-0.07820515894415396,12.18
0.13760985150178812,-0.20656976405370492,12.185
0.1040392568399176,-0.2812702101476393,12.19
0.04032736099387555,-0.23081220541433892,12.195
-0.02742001859119017,-0.13121767361800224,12.2
-0.09271851805469056,-0.06036975802684828,12.205
-0.13896369744012818,0.007188762746067486,12.21
-0.14853150242430743,0.07690733700374866,12.215
-0.13449980517792678,0.11246060144072607,12.22
-0.11713418096261827,0.12940197595032568,12.225
-0.10543132416807102,0.15097127991203138,12.23
-0.10375063175488608,0.15536591965918278,12.235
-0.0977434263123633,0.1379109412370149,12.24
-0.07088129946163574,0.1192051690631949,12.245
-0.04354966670414698,0.10312505226877122,12.25
-0.03717638320715829,0.0924614759558588,12.255
-0.033496336379679324,0.08814455548201512,12.26
-0.022102532761418558,0.07177280981433339,12.265
-0.021626112009029634,0.043112169150480585,12.27
-0.0296400219336162,0.02964002193361618,12.275
-0.027771605072450165,0.04138805645183404,12.28
-0.024144188696734587,0.06507279538764603,12.285
-0.02901749002752843,0.08303016579095922,12.29
-0.029452603083413048,0.08042978675256793,12.295
-0.02275817781035393,0.06392172923291844,12.3
-0.023196790387603493,0.054677000738408726,12.305
-0.02902958670708623,0.055900665558704224,12.31
-0.029271911882872512,0.060172579980484614,12.315
-0.02852362299584297,0.06407879167808675,12.32
-0.032423583555906556,0.06271621927495082,12.325
-0.03457814995494328,0.06481247812281628,12.33
-0.03409588275873009,0.08166647944388365,12.335
-0.035039450012169154,0.08932687797300884,12.34
-0.030286941977256853,0.07056269587423232,12.345
-0.018411127710132164,0.05863292262785201,12.35
-0.01569784767009412,0.0690111983935851,12.355
-0.023642310721261543,0.0709160100542431,12.36
-0.02408949333942943,0.060590614698223015,12.365
-0.019017357191860353,0.06033662942996904,12.37
-0.02264266701733947,0.06418260894304847,12.375
-0.026917439955621365,0.06432673054353677,12.38
-0.024332961425230115,0.07012842540011857,12.385
-0.02430810588367103,0.07276800512618702,12.39
-0.02292123088031179,0.061963485840027,12.395
-0.014820010966808007,0.05434004021162974,12.4
-0.01724285604811548,0.059580371698418656,12.405
-0.029817040992237066,0.06718476386521499,12.41
-0.030357348871199,0.06956614529615189,12.415
-0.02800542395919426,0.05928696172112957,12.42
-0.03837684148361549,0.03803359338346345,12.425
-0.04138336644661978,0.034682384036076624,12.43
-0.03424982552650306,0.06369245494029857,12.435
-0.04225870356001732,0.0923759455878639,12.44
-0.051821497732468955,0.09316513852099263,12.445
-0.0401340382344607,0.0828859502543487,12.45
-0.035088217204558785,0.08449427246533428,12.455
-0.05247805498794153,0.09664759317509816,12.46
-0.05993949342844806,0.11044437687446407,12.465
-0.05000036542009642,0.1184841752633946,12.47
-0.04525302519248749,0.11217068607319078,12.475
-0.04287773282196126,0.10043838168571617,12.48
-0.035689087339168764,0.10917495240266029,12.485
-0.03126233540334926,0.13456728612135074,12.49
-0.020625813747088256,0.1427339926909281,12.495
0.00022660105651524593,0.13433103711123037,12.5
0.007210598715224606,0.13635190347614592,12.505
-0.0008448903693825629,0.13741654929079972,12.51
0.0011151537130417223,0.12263148394854224,12.515
0.007934173999594472,0.12149108485390117,12.52
0.004940003655602753,0.13832010235687575,12.525
0.005677189945915966,0.1326524126357148,12.53
0.01231781691122627,0.10851670975251403,12.535
0.010388732514177561,0.09927370870572161,12.54
0.01156567385655196,0.08857452872485813,12.545
0.023126477687695508,0.059424168646138115,12.55
0.019368254072956594,0.04050525831062725,12.555
0.00019606264338964112,0.040473721543635655,12.56
-0.004224325196995498,0.03883110969148087,12.565
0.0008468112429050138,0.03790538957124349,12.57
-0.004641841754311081,0.042264032933526256,12.575
-0.010004061019452972,0.0390015504932694,12.58
-0.013684154593890307,0.02906465631486939,12.585
-0.027313936683664688,0.020874665149430788,12.59
-0.030334541308006592,0.014979257733633674,12.595
-0.013751244811435174,0.018154792265830392,12.6
-0.013473223027060657,0.027957954846556908,12.605
-0.03227599516131937,0.026535820243880723,12.61
-0.03452157354198746,0.015529051612926708,12.615
-0.029958020427297925,0.008814104969514581,12.62
-0.04384330400070943,0.008232180820127687,12.625
-0.057014982168054146,0.017755861977388047,12.63
-0.05968915090270653,0.03046930627657252,12.635
-0.06686402786944157,0.02283114852082401,12.64
-0.06752912156030352,0.008474042467338903,12.645
-0.059280043867232436,0.019760014622410782,12.65
-0.07049864504669136,0.03588448597052187,12.655
-0.09208418843446303,0.030028073239744255,12.66
-0.09442969298678534,0.02439086486158766,12.665
-0.0947865873404129,0.028766350312588694,12.67
-0.10818711493420609,0.029950000530784414,12.675
-0.11393613151191075,0.03976434427136266,12.68
-0.11389733641861974,0.05723886340943642,12.685
-0.11935787781931098,0.05821140130965055,12.69
-0.1139316413937492,0.05598374824795681,12.695
-0.10206671381741339,0.06673198441469062,12.7
-0.10406133176458074,0.06889987905022084,12.705
-0.09997014040875535,0.06984601142793488,12.71
-0.07512741682045748,0.09146399660311119,12.715
-0.055091242503164856,0.09955320142678281,12.72
-0.044307834795615994,0.08053600552168294,12.725
-0.028052321768373075,0.08688154929315604,12.73
-0.016086448821495368,0.12284296889379433,12.735
-0.007071699176868641,0.1412119937047842,12.74
0.017319977157145748,0.15313172579667758,12.745
0.044137624435462576,0.18952065244663835,12.75
0.05709002336665361,0.22288812375478015,12.755
0.07162656521817487,0.21974869153752785,12.76
0.09642478231123303,0.18030729344894056,12.765
0.1254280746134166,0.10976187580825196,12.77
0.15808011697928653,0.009880007311205377,12.775
0.18152233744714727,-0.11933490851731353,12.78
0.17670079709320524,-0.251140489627767,12.785
0.14023997585646825,-0.3037317644409894,12.79
